Date,Low,Open,Volume,High,Close,Adjusted Close
04-10-1989,2.4375,2.46875,20636000,2.546875,2.5,1.9038705825805664
05-10-1989,2.5,2.515625,6453600,2.625,2.578125,1.963365912437439
06-10-1989,2.546875,2.59375,2755200,2.625,2.546875,1.9395674467086792
09-10-1989,2.5,2.546875,1084000,2.546875,2.546875,1.9395674467086792
10-10-1989,2.5,2.5625,1493600,2.5625,2.53125,1.9276678562164307
11-10-1989,2.46875,2.5,1260000,2.515625,2.515625,1.9157689809799194
12-10-1989,2.515625,2.515625,602400,2.546875,2.53125,1.9276678562164307
13-10-1989,2.46875,2.53125,3970400,2.53125,2.484375,1.8919706344604492
16-10-1989,2.375,2.375,3924800,2.46875,2.46875,1.8800721168518066
17-10-1989,2.4375,2.4375,1843200,2.5,2.5,1.9038705825805664
18-10-1989,2.484375,2.5,1128000,2.5625,2.546875,1.9395674467086792
19-10-1989,2.53125,2.53125,1040000,2.546875,2.546875,1.9395674467086792
20-10-1989,2.515625,2.53125,237600,2.53125,2.53125,1.9276678562164307
23-10-1989,2.546875,2.546875,87200,2.5625,2.546875,1.9395674467086792
24-10-1989,2.53125,2.546875,689600,2.5625,2.5625,1.9514671564102173
25-10-1989,2.515625,2.546875,608000,2.578125,2.546875,1.9395674467086792
26-10-1989,2.546875,2.546875,228800,2.5625,2.546875,1.9395674467086792
27-10-1989,2.5,2.546875,456000,2.546875,2.515625,1.9157689809799194
30-10-1989,2.5,2.515625,250400,2.515625,2.5,1.9038705825805664
31-10-1989,2.5,2.5,424800,2.515625,2.5,1.9038705825805664
01-11-1989,2.515625,2.515625,715200,2.5625,2.5625,1.9514671564102173
02-11-1989,2.59375,2.59375,130400,2.640625,2.640625,2.0109615325927734
03-11-1989,2.625,2.625,1118400,2.75,2.734375,2.082357883453369
06-11-1989,2.578125,2.71875,264800,2.71875,2.578125,1.963365912437439
07-11-1989,2.5,2.546875,727200,2.6875,2.6875,2.0466606616973877
08-11-1989,2.671875,2.6875,236800,2.71875,2.71875,2.0704586505889893
09-11-1989,2.6875,2.71875,60800,2.71875,2.6875,2.0466606616973877
10-11-1989,2.546875,2.6875,210400,2.6875,2.5625,1.9514671564102173
13-11-1989,2.515625,2.5625,92800,2.5625,2.546875,1.9395674467086792
14-11-1989,2.484375,2.578125,428000,2.578125,2.53125,1.9276678562164307
15-11-1989,2.53125,2.546875,176000,2.578125,2.5625,1.9514671564102173
16-11-1989,2.546875,2.546875,301600,2.59375,2.59375,1.9752646684646606
17-11-1989,2.59375,2.59375,249600,2.640625,2.640625,2.0109615325927734
20-11-1989,2.609375,2.65625,43200,2.65625,2.609375,1.9871641397476196
21-11-1989,2.59375,2.59375,108800,2.671875,2.671875,2.0347607135772705
22-11-1989,2.6875,2.6875,255200,2.75,2.75,2.09425687789917
24-11-1989,2.78125,2.78125,572000,2.953125,2.921875,2.2251477241516113
27-11-1989,2.859375,2.90625,253600,2.9375,2.875,2.1894493103027344
28-11-1989,2.828125,2.875,560000,2.875,2.828125,2.153752565383911
29-11-1989,2.78125,2.8125,60800,2.8125,2.796875,2.129955291748047
30-11-1989,2.8125,2.8125,712800,2.90625,2.890625,2.201350450515747
01-12-1989,2.890625,2.890625,356800,2.953125,2.90625,2.213249683380127
04-12-1989,2.875,2.9375,172000,2.984375,2.984375,2.2727439403533936
05-12-1989,2.90625,2.953125,93600,2.984375,2.90625,2.213249683380127
06-12-1989,2.90625,2.90625,668800,3.0,2.984375,2.2727439403533936
07-12-1989,2.921875,2.984375,215200,2.984375,2.953125,2.248948097229004
08-12-1989,2.921875,2.921875,122400,2.953125,2.953125,2.248948097229004
11-12-1989,2.9375,2.96875,306400,3.03125,3.0,2.284644603729248
12-12-1989,2.984375,3.015625,1119200,3.03125,3.015625,2.2965433597564697
13-12-1989,2.984375,3.0,400000,3.15625,3.15625,2.4036362171173096
14-12-1989,3.109375,3.125,391200,3.140625,3.125,2.379838228225708
15-12-1989,3.09375,3.140625,155200,3.140625,3.109375,2.3679392337799072
18-12-1989,3.03125,3.078125,224000,3.125,3.03125,2.3084428310394287
19-12-1989,3.03125,3.03125,215200,3.0625,3.0625,2.332242250442505
20-12-1989,3.046875,3.0625,166400,3.109375,3.078125,2.3441412448883057
21-12-1989,3.0625,3.109375,174400,3.125,3.109375,2.3679392337799072
22-12-1989,3.109375,3.125,173600,3.125,3.125,2.379838228225708
26-12-1989,3.078125,3.109375,97600,3.109375,3.078125,2.3441412448883057
27-12-1989,3.03125,3.0625,144000,3.0625,3.03125,2.3084428310394287
28-12-1989,3.03125,3.046875,11200,3.046875,3.03125,2.3084428310394287
29-12-1989,3.015625,3.03125,219200,3.15625,3.15625,2.4036362171173096
02-01-1990,3.03125,3.125,194400,3.125,3.046875,2.320340633392334
03-01-1990,3.03125,3.0625,361600,3.0625,3.03125,2.3084428310394287
04-01-1990,2.953125,3.03125,166400,3.0625,2.953125,2.248948097229004
05-01-1990,2.859375,2.9375,100800,2.9375,2.90625,2.213249683380127
08-01-1990,2.84375,2.875,880800,2.890625,2.859375,2.177550792694092
09-01-1990,2.8125,2.828125,282400,2.84375,2.8125,2.1418540477752686
10-01-1990,2.6875,2.765625,784000,2.765625,2.703125,2.0631449222564697
11-01-1990,2.703125,2.71875,347200,2.765625,2.75,2.098921298980713
12-01-1990,2.6875,2.71875,159200,2.734375,2.71875,2.07507061958313
15-01-1990,2.71875,2.734375,25600,2.734375,2.71875,2.07507061958313
16-01-1990,2.625,2.6875,172800,2.703125,2.703125,2.0631449222564697
17-01-1990,2.71875,2.71875,216000,2.8125,2.71875,2.07507061958313
18-01-1990,2.6875,2.6875,157600,2.71875,2.703125,2.0631449222564697
19-01-1990,2.734375,2.734375,8800,2.75,2.75,2.098921298980713
22-01-1990,2.71875,2.734375,56800,2.75,2.734375,2.086995840072632
23-01-1990,2.734375,2.765625,101600,2.765625,2.75,2.098921298980713
24-01-1990,2.6875,2.734375,26400,2.734375,2.6875,2.0512189865112305
25-01-1990,2.671875,2.6875,249600,2.71875,2.71875,2.07507061958313
26-01-1990,2.671875,2.703125,45600,2.71875,2.671875,2.0392942428588867
29-01-1990,2.625,2.6875,444000,2.6875,2.640625,2.0154411792755127
30-01-1990,2.578125,2.625,548000,2.65625,2.65625,2.0273663997650146
31-01-1990,2.6875,2.6875,757600,2.859375,2.859375,2.182401418685913
01-02-1990,2.84375,2.875,149600,2.875,2.859375,2.182401418685913
02-02-1990,2.875,2.875,720000,2.90625,2.875,2.1943271160125732
05-02-1990,2.875,2.90625,163200,2.90625,2.875,2.1943271160125732
06-02-1990,2.84375,2.875,99200,2.90625,2.890625,2.2062528133392334
07-02-1990,2.90625,2.90625,32800,2.9375,2.9375,2.242027997970581
08-02-1990,2.96875,2.96875,346400,3.125,3.046875,2.325509786605835
09-02-1990,2.96875,3.078125,179200,3.125,3.0,2.2897326946258545
12-02-1990,2.90625,3.0,28000,3.0,2.90625,2.21817946434021
13-02-1990,2.9375,2.9375,26400,2.953125,2.953125,2.253955364227295
14-02-1990,2.9375,2.953125,32800,2.96875,2.9375,2.242027997970581
15-02-1990,2.953125,2.953125,152000,2.96875,2.953125,2.253955364227295
16-02-1990,2.96875,2.96875,32000,2.96875,2.96875,2.2658815383911133
20-02-1990,2.953125,2.984375,23200,2.984375,2.953125,2.253955364227295
21-02-1990,2.90625,2.953125,553600,2.953125,2.90625,2.21817946434021
22-02-1990,2.84375,2.90625,148000,2.90625,2.84375,2.170475482940674
23-02-1990,2.6875,2.78125,575200,2.78125,2.71875,2.07507061958313
26-02-1990,2.734375,2.734375,477600,2.75,2.75,2.098921298980713
27-02-1990,2.765625,2.765625,357600,2.84375,2.84375,2.170475482940674
28-02-1990,2.796875,2.8125,145600,2.828125,2.796875,2.1346981525421143
01-03-1990,2.75,2.796875,225600,2.796875,2.75,2.098921298980713
02-03-1990,2.6875,2.75,931200,2.78125,2.703125,2.0631449222564697
05-03-1990,2.65625,2.671875,146400,2.703125,2.671875,2.0392942428588867
06-03-1990,2.625,2.671875,258400,2.734375,2.734375,2.086995840072632
07-03-1990,2.703125,2.734375,174400,2.75,2.75,2.098921298980713
08-03-1990,2.734375,2.75,146400,2.796875,2.78125,2.1227729320526123
09-03-1990,2.734375,2.75,194400,2.78125,2.734375,2.086995840072632
12-03-1990,2.625,2.703125,1072800,2.71875,2.6875,2.0512189865112305
13-03-1990,2.671875,2.671875,662400,2.6875,2.6875,2.0512189865112305
14-03-1990,2.671875,2.671875,298400,2.765625,2.765625,2.1108462810516357
15-03-1990,2.71875,2.78125,192000,2.796875,2.71875,2.07507061958313
16-03-1990,2.734375,2.75,271200,2.78125,2.78125,2.1227729320526123
19-03-1990,2.75,2.75,476000,2.765625,2.765625,2.1108462810516357
20-03-1990,2.75,2.75,898400,2.90625,2.796875,2.1346981525421143
21-03-1990,2.796875,2.796875,102400,2.8125,2.796875,2.1346981525421143
22-03-1990,2.75,2.75,177600,2.765625,2.765625,2.1108462810516357
23-03-1990,2.796875,2.796875,320000,2.796875,2.796875,2.1346981525421143
26-03-1990,2.75,2.78125,37600,2.78125,2.75,2.098921298980713
27-03-1990,2.734375,2.734375,24000,2.75,2.75,2.098921298980713
28-03-1990,2.84375,2.84375,706400,2.9375,2.921875,2.2301032543182373
29-03-1990,2.890625,2.921875,361600,2.9375,2.90625,2.21817946434021
30-03-1990,2.921875,2.921875,161600,2.921875,2.921875,2.2301032543182373
02-04-1990,2.84375,2.921875,184800,2.921875,2.875,2.1943271160125732
03-04-1990,2.875,2.875,358400,3.03125,2.984375,2.2778055667877197
04-04-1990,2.90625,2.984375,364800,2.984375,2.90625,2.21817946434021
05-04-1990,2.90625,2.9375,373600,2.953125,2.90625,2.21817946434021
06-04-1990,2.78125,2.921875,810400,2.921875,2.78125,2.1227729320526123
09-04-1990,2.734375,2.734375,336800,2.765625,2.734375,2.0916965007781982
10-04-1990,2.71875,2.75,426400,2.8125,2.765625,2.1156017780303955
11-04-1990,2.71875,2.78125,234400,2.8125,2.734375,2.0916965007781982
12-04-1990,2.59375,2.71875,456000,2.734375,2.625,2.0080275535583496
16-04-1990,2.640625,2.640625,273600,2.734375,2.703125,2.0677919387817383
17-04-1990,2.703125,2.71875,16800,2.71875,2.71875,2.079744815826416
18-04-1990,2.6875,2.6875,333600,2.75,2.71875,2.079744815826416
19-04-1990,2.671875,2.71875,207200,2.71875,2.6875,2.0558393001556396
20-04-1990,2.65625,2.671875,168800,2.6875,2.671875,2.043886184692383
23-04-1990,2.625,2.65625,173600,2.65625,2.625,2.0080275535583496
24-04-1990,2.625,2.625,458400,2.671875,2.625,2.0080275535583496
25-04-1990,2.640625,2.65625,104000,2.671875,2.65625,2.031933307647705
26-04-1990,2.625,2.625,461600,2.6875,2.6875,2.0558393001556396
27-04-1990,2.6875,2.6875,133600,2.703125,2.703125,2.0677919387817383
30-04-1990,2.6875,2.703125,68800,2.71875,2.71875,2.079744815826416
01-05-1990,2.6875,2.71875,732800,2.828125,2.8125,2.1514604091644287
02-05-1990,2.765625,2.78125,575200,2.828125,2.8125,2.1514604091644287
03-05-1990,2.828125,2.84375,105600,2.859375,2.828125,2.1634113788604736
04-05-1990,2.78125,2.84375,279200,2.84375,2.78125,2.127554178237915
07-05-1990,2.78125,2.78125,32800,2.84375,2.84375,2.1753642559051514
08-05-1990,2.828125,2.84375,48800,2.84375,2.828125,2.1634113788604736
09-05-1990,2.796875,2.84375,1232800,2.859375,2.796875,2.1395065784454346
10-05-1990,2.796875,2.8125,428000,2.84375,2.796875,2.1395065784454346
11-05-1990,2.828125,2.828125,172000,2.875,2.875,2.199270009994507
14-05-1990,2.75,2.890625,2418400,2.890625,2.75,2.103649377822876
15-05-1990,2.75,2.78125,5804800,2.828125,2.8125,2.1514604091644287
16-05-1990,2.8125,2.8125,367200,2.96875,2.90625,2.223175048828125
17-05-1990,2.921875,2.921875,196000,2.953125,2.953125,2.2590315341949463
18-05-1990,2.96875,2.96875,181600,3.0,3.0,2.2948904037475586
21-05-1990,2.921875,2.96875,74400,2.96875,2.953125,2.2590315341949463
22-05-1990,2.96875,2.984375,40800,2.984375,2.96875,2.2709848880767822
23-05-1990,2.90625,2.96875,30400,2.96875,2.90625,2.223175048828125
24-05-1990,2.75,2.921875,483200,2.921875,2.8125,2.1514604091644287
25-05-1990,2.75,2.8125,817600,2.875,2.875,2.199270009994507
29-05-1990,2.890625,2.890625,60800,2.90625,2.90625,2.223175048828125
30-05-1990,2.921875,2.9375,129600,2.984375,2.96875,2.2709848880767822
31-05-1990,2.90625,2.9375,143200,2.984375,2.96875,2.2709848880767822
01-06-1990,2.953125,2.96875,47200,2.984375,2.96875,2.2709848880767822
04-06-1990,2.90625,2.9375,68000,2.984375,2.984375,2.282937526702881
05-06-1990,2.796875,2.984375,1125600,3.0,2.890625,2.211221694946289
06-06-1990,2.875,2.890625,44000,2.90625,2.875,2.199270009994507
07-06-1990,2.859375,2.890625,212800,2.890625,2.859375,2.187316417694092
08-06-1990,2.8125,2.875,405600,2.875,2.84375,2.1753642559051514
11-06-1990,2.84375,2.859375,48800,2.890625,2.875,2.199270009994507
12-06-1990,2.859375,2.90625,196000,3.0,2.984375,2.282937526702881
13-06-1990,2.96875,2.96875,208000,3.09375,2.96875,2.2709848880767822
14-06-1990,2.9375,2.953125,20800,2.984375,2.984375,2.282937526702881
15-06-1990,2.921875,2.984375,158400,2.984375,2.96875,2.2709848880767822
18-06-1990,2.96875,2.96875,1600,2.96875,2.96875,2.2709848880767822
19-06-1990,2.875,2.9375,174400,2.9375,2.921875,2.2351267337799072
20-06-1990,2.90625,2.953125,127200,2.953125,2.9375,2.247079372406006
21-06-1990,2.921875,2.921875,6400,2.9375,2.9375,2.247079372406006
22-06-1990,2.921875,2.9375,356800,2.953125,2.953125,2.2590315341949463
25-06-1990,2.90625,2.921875,24800,2.9375,2.921875,2.2351267337799072
26-06-1990,2.859375,2.90625,207200,2.921875,2.921875,2.2351267337799072
27-06-1990,2.921875,2.921875,13600,2.9375,2.921875,2.2351267337799072
28-06-1990,2.9375,2.9375,157600,2.96875,2.96875,2.2709848880767822
29-06-1990,2.953125,2.984375,327200,2.984375,2.96875,2.2709848880767822
02-07-1990,2.875,2.953125,322400,2.953125,2.90625,2.223175048828125
03-07-1990,2.875,2.9375,308800,2.9375,2.875,2.199270009994507
05-07-1990,2.8125,2.84375,596800,2.84375,2.828125,2.1634113788604736
06-07-1990,2.78125,2.78125,82400,2.796875,2.796875,2.1395065784454346
09-07-1990,2.75,2.796875,724800,2.8125,2.78125,2.127554178237915
10-07-1990,2.765625,2.78125,1073600,2.78125,2.78125,2.1323461532592773
11-07-1990,2.78125,2.78125,776000,2.8125,2.796875,2.144325017929077
12-07-1990,2.796875,2.796875,1208800,2.90625,2.875,2.2042226791381836
13-07-1990,2.90625,2.90625,568000,3.0,2.96875,2.276099920272827
16-07-1990,2.96875,2.984375,680800,3.0,2.96875,2.276099920272827
17-07-1990,2.921875,2.96875,102400,2.96875,2.921875,2.240161180496216
18-07-1990,2.84375,2.921875,348000,2.921875,2.84375,2.180263042449951
19-07-1990,2.796875,2.8125,465600,2.875,2.875,2.2042226791381836
20-07-1990,2.890625,2.890625,51200,2.90625,2.890625,2.2162022590637207
23-07-1990,2.859375,2.875,349600,2.9375,2.9375,2.252140522003174
24-07-1990,2.90625,2.90625,353600,3.015625,2.984375,2.2880804538726807
25-07-1990,3.0,3.015625,52000,3.03125,3.03125,2.324017286300659
26-07-1990,3.03125,3.0625,80000,3.0625,3.0625,2.3479769229888916
27-07-1990,2.984375,3.03125,75200,3.0625,2.984375,2.2880804538726807
30-07-1990,2.984375,3.0,160800,3.0,3.0,2.3000590801239014
31-07-1990,2.953125,2.953125,175200,3.015625,3.0,2.3000590801239014
01-08-1990,3.0,3.03125,134400,3.0625,3.015625,2.312037467956543
02-08-1990,3.03125,3.125,1056800,3.171875,3.171875,2.4318325519561768
03-08-1990,3.109375,3.15625,1272000,3.265625,3.203125,2.4557907581329346
06-08-1990,3.125,3.25,247200,3.265625,3.125,2.395893096923828
07-08-1990,3.125,3.125,148800,3.140625,3.140625,2.4078733921051025
08-08-1990,3.09375,3.125,170400,3.140625,3.09375,2.3719353675842285
09-08-1990,3.0625,3.09375,296000,3.09375,3.09375,2.3719353675842285
10-08-1990,3.09375,3.09375,299200,3.109375,3.09375,2.3719353675842285
13-08-1990,3.078125,3.109375,56800,3.125,3.078125,2.3599557876586914
14-08-1990,3.0625,3.109375,49600,3.109375,3.0625,2.3479769229888916
15-08-1990,3.0625,3.0625,196000,3.15625,3.125,2.395893096923828
16-08-1990,3.078125,3.109375,140000,3.125,3.109375,2.3839151859283447
17-08-1990,3.125,3.140625,201600,3.1875,3.140625,2.4078733921051025
20-08-1990,3.046875,3.15625,239200,3.15625,3.046875,2.335996627807617
21-08-1990,3.0625,3.0625,452000,3.09375,3.078125,2.3599557876586914
22-08-1990,3.015625,3.0625,333600,3.09375,3.015625,2.312037467956543
23-08-1990,2.9375,3.0,364000,3.0,2.96875,2.276099920272827
24-08-1990,2.921875,2.921875,326400,3.0,3.0,2.3000590801239014
27-08-1990,2.953125,3.0,88000,3.0,2.953125,2.264120578765869
28-08-1990,2.953125,2.953125,8000,2.984375,2.984375,2.2880804538726807
29-08-1990,2.9375,3.015625,140800,3.015625,2.9375,2.252140522003174
30-08-1990,2.90625,2.953125,65600,2.984375,2.984375,2.2880804538726807
31-08-1990,2.890625,2.953125,256800,2.984375,2.921875,2.240161180496216
04-09-1990,2.9375,2.9375,20000,2.953125,2.953125,2.264120578765869
05-09-1990,2.953125,2.953125,223200,3.1875,3.171875,2.4318325519561768
06-09-1990,3.1875,3.203125,317600,3.296875,3.296875,2.5276682376861572
07-09-1990,3.296875,3.296875,160800,3.359375,3.359375,2.5755858421325684
10-09-1990,3.328125,3.328125,1408800,3.390625,3.359375,2.5755858421325684
11-09-1990,3.1875,3.375,963200,3.375,3.3125,2.5396487712860107
12-09-1990,3.265625,3.34375,336000,3.34375,3.3125,2.5396487712860107
13-09-1990,3.25,3.3125,405600,3.328125,3.25,2.491729259490967
14-09-1990,3.25,3.25,209600,3.390625,3.390625,2.599546432495117
17-09-1990,3.375,3.390625,1116000,3.46875,3.46875,2.65944242477417
18-09-1990,3.46875,3.46875,776800,3.765625,3.671875,2.815176486968994
19-09-1990,3.65625,3.6875,1624800,3.6875,3.65625,2.8031959533691406
20-09-1990,3.53125,3.65625,432000,3.65625,3.53125,2.70736026763916
21-09-1990,3.46875,3.484375,521600,3.5625,3.5625,2.7313201427459717
24-09-1990,3.484375,3.5625,112800,3.5625,3.515625,2.6953811645507812
25-09-1990,3.5,3.5,221600,3.515625,3.515625,2.6953811645507812
26-09-1990,3.453125,3.515625,55200,3.515625,3.46875,2.65944242477417
27-09-1990,3.375,3.4375,72800,3.453125,3.375,2.5875656604766846
28-09-1990,3.28125,3.375,163200,3.375,3.34375,2.5636069774627686
01-10-1990,3.296875,3.328125,455200,3.390625,3.34375,2.5636069774627686
02-10-1990,3.328125,3.359375,72000,3.359375,3.359375,2.5755858421325684
03-10-1990,3.3125,3.34375,26400,3.34375,3.34375,2.5636069774627686
04-10-1990,3.25,3.34375,313600,3.34375,3.25,2.491729259490967
05-10-1990,3.1875,3.234375,550400,3.296875,3.1875,2.443812131881714
08-10-1990,3.1875,3.203125,411200,3.234375,3.1875,2.443812131881714
09-10-1990,3.203125,3.203125,298400,3.375,3.34375,2.568643569946289
10-10-1990,3.21875,3.34375,200000,3.34375,3.234375,2.484621524810791
11-10-1990,3.203125,3.25,34400,3.25,3.21875,2.4726195335388184
12-10-1990,3.171875,3.1875,89600,3.203125,3.203125,2.4606168270111084
15-10-1990,3.15625,3.203125,36800,3.203125,3.15625,2.424607753753662
16-10-1990,3.109375,3.140625,153600,3.15625,3.109375,2.388598680496216
17-10-1990,3.09375,3.109375,11200,3.125,3.125,2.4006009101867676
18-10-1990,3.109375,3.109375,113600,3.125,3.109375,2.388598680496216
19-10-1990,3.078125,3.109375,36800,3.109375,3.09375,2.3765950202941895
22-10-1990,3.0625,3.109375,68000,3.109375,3.0625,2.352588176727295
23-10-1990,3.0625,3.0625,17600,3.109375,3.109375,2.388598680496216
24-10-1990,3.125,3.125,120000,3.15625,3.15625,2.424607753753662
25-10-1990,3.1875,3.1875,112800,3.328125,3.328125,2.556640863418579
26-10-1990,3.3125,3.3125,22400,3.359375,3.359375,2.5806455612182617
29-10-1990,3.359375,3.375,16000,3.375,3.359375,2.5806455612182617
30-10-1990,3.28125,3.34375,29600,3.359375,3.296875,2.53263521194458
31-10-1990,3.3125,3.3125,366400,3.453125,3.375,2.5926501750946045
01-11-1990,3.359375,3.375,163200,3.375,3.375,2.5926501750946045
02-11-1990,3.375,3.375,469600,3.53125,3.5,2.6886730194091797
05-11-1990,3.46875,3.53125,426400,3.546875,3.46875,2.6646671295166016
06-11-1990,3.421875,3.484375,8800,3.484375,3.421875,2.6286590099334717
07-11-1990,3.375,3.421875,148000,3.421875,3.375,2.5926501750946045
08-11-1990,3.34375,3.34375,37600,3.390625,3.390625,2.604651927947998
09-11-1990,3.375,3.375,397600,3.4375,3.421875,2.6286590099334717
12-11-1990,3.328125,3.390625,76800,3.390625,3.328125,2.556640863418579
13-11-1990,3.109375,3.15625,208000,3.15625,3.109375,2.388598680496216
14-11-1990,3.109375,3.125,75200,3.1875,3.1875,2.4486119747161865
15-11-1990,3.125,3.15625,45600,3.171875,3.140625,2.4126033782958984
16-11-1990,3.09375,3.140625,300800,3.15625,3.15625,2.424607753753662
19-11-1990,2.984375,3.15625,456800,3.15625,2.984375,2.292574167251587
20-11-1990,2.84375,2.96875,329600,2.96875,2.921875,2.244563102722168
21-11-1990,2.890625,2.90625,32800,2.96875,2.96875,2.2805721759796143
23-11-1990,2.96875,2.96875,18400,2.984375,2.96875,2.2805721759796143
26-11-1990,2.96875,2.984375,40000,3.0,2.96875,2.2805721759796143
27-11-1990,2.9375,2.984375,39200,2.984375,2.953125,2.268568515777588
28-11-1990,2.90625,2.953125,145600,2.953125,2.921875,2.244563102722168
29-11-1990,2.90625,2.90625,36800,2.90625,2.90625,2.2325587272644043
30-11-1990,2.765625,2.875,236000,2.890625,2.8125,2.1605417728424072
03-12-1990,2.609375,2.796875,366400,2.796875,2.75,2.1125285625457764
04-12-1990,2.671875,2.734375,230400,2.734375,2.71875,2.088521718978882
05-12-1990,2.71875,2.71875,432000,2.796875,2.78125,2.1365339756011963
06-12-1990,2.734375,2.78125,248800,2.8125,2.75,2.1125285625457764
07-12-1990,2.625,2.71875,257600,2.71875,2.71875,2.088521718978882
10-12-1990,2.703125,2.734375,179200,2.734375,2.71875,2.088521718978882
11-12-1990,2.703125,2.703125,981600,2.78125,2.734375,2.1005263328552246
12-12-1990,2.734375,2.75,493600,2.78125,2.78125,2.1365339756011963
13-12-1990,2.71875,2.75,908000,2.75,2.71875,2.088521718978882
14-12-1990,2.65625,2.71875,207200,2.78125,2.78125,2.1365339756011963
17-12-1990,2.734375,2.796875,89600,2.828125,2.734375,2.1005263328552246
18-12-1990,2.703125,2.765625,153600,2.796875,2.703125,2.0765206813812256
19-12-1990,2.640625,2.703125,277600,2.734375,2.640625,2.0285086631774902
20-12-1990,2.546875,2.609375,1007200,2.609375,2.5625,1.968493103981018
21-12-1990,2.484375,2.484375,980000,2.515625,2.5,1.9204809665679932
24-12-1990,2.5,2.5,222400,2.546875,2.546875,1.9564900398254395
26-12-1990,2.5625,2.5625,93600,2.75,2.75,2.1125285625457764
27-12-1990,2.71875,2.75,51200,2.75,2.734375,2.1005263328552246
28-12-1990,2.65625,2.71875,49600,2.71875,2.65625,2.0405116081237793
31-12-1990,2.53125,2.65625,364800,2.65625,2.65625,2.0405116081237793
02-01-1991,2.59375,2.625,36000,2.625,2.59375,1.9924988746643066
03-01-1991,2.484375,2.59375,413600,2.59375,2.484375,1.9084781408309937
04-01-1991,2.328125,2.4375,216800,2.4375,2.328125,1.7884478569030762
07-01-1991,2.21875,2.296875,599200,2.3125,2.265625,1.740436315536499
08-01-1991,2.15625,2.25,679200,2.265625,2.15625,1.656415581703186
09-01-1991,2.140625,2.171875,572000,2.1875,2.140625,1.649192214012146
10-01-1991,2.09375,2.125,296000,2.140625,2.140625,1.649192214012146
11-01-1991,2.109375,2.109375,278400,2.21875,2.21875,1.7093818187713623
14-01-1991,2.21875,2.234375,172800,2.265625,2.25,1.7334576845169067
15-01-1991,2.171875,2.25,92800,2.25,2.234375,1.721419334411621
16-01-1991,2.171875,2.234375,50400,2.25,2.203125,1.6973438262939453
17-01-1991,2.03125,2.1875,1341600,2.25,2.203125,1.6973438262939453
18-01-1991,2.15625,2.203125,275200,2.21875,2.1875,1.6853055953979492
21-01-1991,2.0625,2.15625,550400,2.15625,2.125,1.637154459953308
22-01-1991,2.125,2.15625,174400,2.171875,2.125,1.637154459953308
23-01-1991,2.140625,2.140625,837600,2.265625,2.25,1.7334576845169067
24-01-1991,2.265625,2.3125,495200,2.34375,2.28125,1.7575328350067139
25-01-1991,2.21875,2.3125,817600,2.375,2.25,1.7334576845169067
28-01-1991,2.203125,2.28125,679200,2.296875,2.234375,1.721419334411621
29-01-1991,2.25,2.25,99200,2.265625,2.25,1.7334576845169067
30-01-1991,2.203125,2.21875,132000,2.25,2.234375,1.721419334411621
31-01-1991,2.15625,2.21875,384800,2.21875,2.171875,1.673268437385559
01-02-1991,2.15625,2.15625,869600,2.21875,2.21875,1.7093818187713623
04-02-1991,2.203125,2.21875,961600,2.28125,2.25,1.7334576845169067
05-02-1991,2.25,2.25,1217600,2.375,2.28125,1.7575328350067139
06-02-1991,2.28125,2.28125,1186400,2.5,2.484375,1.914025068283081
07-02-1991,2.546875,2.546875,1224000,2.78125,2.6875,2.0705182552337646
08-02-1991,2.640625,2.65625,94400,2.6875,2.671875,2.058481454849243
11-02-1991,2.640625,2.6875,307200,2.75,2.703125,2.082556962966919
12-02-1991,2.59375,2.734375,216000,2.734375,2.59375,1.9982905387878418
13-02-1991,2.625,2.625,45600,2.703125,2.703125,2.082556962966919
14-02-1991,2.515625,2.6875,148800,2.6875,2.515625,1.9381020069122314
15-02-1991,2.484375,2.484375,356800,2.609375,2.609375,2.010329246520996
19-02-1991,2.515625,2.59375,160800,2.59375,2.546875,1.9621775150299072
20-02-1991,2.515625,2.546875,219200,2.625,2.625,2.022367477416992
21-02-1991,2.59375,2.609375,188000,2.625,2.59375,1.9982905387878418
22-02-1991,2.453125,2.59375,408000,2.59375,2.453125,1.8899500370025635
25-02-1991,2.328125,2.453125,88800,2.453125,2.328125,1.7936466932296753
26-02-1991,2.265625,2.3125,776800,2.328125,2.3125,1.7816087007522583
27-02-1991,2.34375,2.34375,1544000,2.453125,2.4375,1.8779125213623047
28-02-1991,2.453125,2.46875,578400,2.59375,2.59375,1.9982905387878418
01-03-1991,2.53125,2.59375,692800,2.59375,2.546875,1.9621775150299072
04-03-1991,2.546875,2.546875,555200,2.609375,2.59375,1.9982905387878418
05-03-1991,2.5625,2.5625,418400,2.578125,2.578125,1.9862538576126099
06-03-1991,2.546875,2.546875,180800,2.59375,2.5625,1.9742156267166138
07-03-1991,2.5625,2.5625,280800,2.625,2.625,2.022367477416992
08-03-1991,2.59375,2.625,442400,2.78125,2.671875,2.058481454849243
11-03-1991,2.6875,2.6875,116000,2.75,2.71875,2.0945932865142822
12-03-1991,2.6875,2.75,163200,2.75,2.6875,2.0705182552337646
13-03-1991,2.59375,2.671875,147200,2.671875,2.59375,1.9982905387878418
14-03-1991,2.546875,2.578125,184000,2.59375,2.5625,1.9742156267166138
15-03-1991,2.546875,2.546875,289600,2.65625,2.625,2.022367477416992
18-03-1991,2.625,2.640625,136000,2.6875,2.6875,2.0705182552337646
19-03-1991,2.609375,2.65625,172000,2.65625,2.625,2.022367477416992
20-03-1991,2.625,2.625,71200,2.65625,2.65625,2.046443462371826
21-03-1991,2.65625,2.671875,327200,2.734375,2.734375,2.1066317558288574
22-03-1991,2.703125,2.734375,93600,2.734375,2.703125,2.082556962966919
25-03-1991,2.640625,2.71875,115200,2.71875,2.703125,2.082556962966919
26-03-1991,2.625,2.671875,447200,2.6875,2.65625,2.046443462371826
27-03-1991,2.578125,2.640625,86400,2.640625,2.578125,1.9862538576126099
28-03-1991,2.515625,2.578125,70400,2.59375,2.515625,1.9381020069122314
01-04-1991,2.453125,2.53125,128000,2.53125,2.453125,1.8899500370025635
02-04-1991,2.359375,2.46875,367200,2.46875,2.375,1.8297609090805054
03-04-1991,2.3125,2.359375,1358400,2.4375,2.3125,1.7816087007522583
04-04-1991,2.34375,2.34375,1049600,2.40625,2.40625,1.8538362979888916
05-04-1991,2.421875,2.421875,73600,2.484375,2.484375,1.914025068283081
08-04-1991,2.4375,2.46875,24000,2.46875,2.4375,1.8779125213623047
09-04-1991,2.375,2.40625,198400,2.4375,2.4375,1.8779125213623047
10-04-1991,2.34375,2.421875,198400,2.421875,2.390625,1.8465335369110107
11-04-1991,2.359375,2.40625,255200,2.4375,2.40625,1.8586026430130005
12-04-1991,2.390625,2.40625,398400,2.46875,2.46875,1.906877040863037
15-04-1991,2.5,2.5,258400,2.5625,2.546875,1.9672218561172485
16-04-1991,2.53125,2.53125,468000,2.640625,2.625,2.02756667137146
17-04-1991,2.578125,2.640625,662400,2.640625,2.578125,1.9913603067398071
18-04-1991,2.609375,2.609375,68800,2.640625,2.625,2.02756667137146
19-04-1991,2.5625,2.609375,20000,2.625,2.578125,1.9913603067398071
22-04-1991,2.484375,2.578125,263200,2.578125,2.5,1.9310153722763062
23-04-1991,2.453125,2.484375,69600,2.5,2.5,1.9310153722763062
24-04-1991,2.46875,2.5,44800,2.5,2.5,1.9310153722763062
25-04-1991,2.46875,2.484375,70400,2.484375,2.46875,1.906877040863037
26-04-1991,2.421875,2.453125,24000,2.453125,2.4375,1.8827393054962158
29-04-1991,2.34375,2.421875,373600,2.421875,2.34375,1.810326099395752
30-04-1991,2.328125,2.375,1024800,2.375,2.375,1.8344649076461792
01-05-1991,2.34375,2.375,403200,2.421875,2.421875,1.8706709146499634
02-05-1991,2.375,2.40625,714400,2.40625,2.375,1.8344649076461792
03-05-1991,2.359375,2.40625,464000,2.4375,2.390625,1.8465335369110107
06-05-1991,2.359375,2.375,11200,2.375,2.359375,1.8223950862884521
07-05-1991,2.28125,2.375,360800,2.375,2.34375,1.810326099395752
08-05-1991,2.328125,2.34375,567200,2.453125,2.4375,1.8827393054962158
09-05-1991,2.40625,2.453125,150400,2.46875,2.46875,1.906877040863037
10-05-1991,2.375,2.453125,88800,2.453125,2.375,1.8344649076461792
13-05-1991,2.28125,2.359375,872000,2.359375,2.28125,1.7620514631271362
14-05-1991,2.28125,2.28125,366400,2.375,2.3125,1.7861888408660889
15-05-1991,2.3125,2.3125,276000,2.40625,2.390625,1.8465335369110107
16-05-1991,2.421875,2.453125,404000,2.46875,2.421875,1.8706709146499634
17-05-1991,2.390625,2.421875,25600,2.421875,2.40625,1.8586026430130005
20-05-1991,2.390625,2.40625,121600,2.4375,2.40625,1.8586026430130005
21-05-1991,2.34375,2.4375,480800,2.4375,2.375,1.8344649076461792
22-05-1991,2.375,2.375,31200,2.390625,2.390625,1.8465335369110107
23-05-1991,2.375,2.40625,240800,2.421875,2.40625,1.8586026430130005
24-05-1991,2.375,2.421875,160800,2.453125,2.390625,1.8465335369110107
28-05-1991,2.375,2.375,60000,2.453125,2.4375,1.8827393054962158
29-05-1991,2.421875,2.4375,334400,2.4375,2.4375,1.8827393054962158
30-05-1991,2.421875,2.4375,521600,2.5,2.5,1.9310153722763062
31-05-1991,2.53125,2.53125,1612000,2.625,2.625,2.02756667137146
03-06-1991,2.609375,2.65625,256000,2.6875,2.625,2.02756667137146
04-06-1991,2.625,2.65625,1272800,2.671875,2.625,2.02756667137146
05-06-1991,2.578125,2.625,141600,2.625,2.578125,1.9913603067398071
06-06-1991,2.5625,2.5625,201600,2.609375,2.59375,2.0034291744232178
07-06-1991,2.53125,2.59375,473600,2.59375,2.53125,1.955152153968811
10-06-1991,2.53125,2.546875,168000,2.5625,2.53125,1.955152153968811
11-06-1991,2.4375,2.53125,155200,2.53125,2.5,1.9310153722763062
12-06-1991,2.484375,2.5,51200,2.5,2.5,1.9310153722763062
13-06-1991,2.484375,2.5,1600,2.5,2.484375,1.9189456701278687
14-06-1991,2.46875,2.46875,83200,2.46875,2.46875,1.906877040863037
17-06-1991,2.453125,2.46875,21600,2.46875,2.453125,1.8948086500167847
18-06-1991,2.4375,2.46875,341600,2.46875,2.46875,1.906877040863037
19-06-1991,2.46875,2.46875,170400,2.5,2.5,1.9310153722763062
20-06-1991,2.375,2.4375,30400,2.4375,2.375,1.8344649076461792
21-06-1991,2.3125,2.34375,251200,2.375,2.34375,1.810326099395752
24-06-1991,2.3125,2.359375,124800,2.375,2.375,1.8344649076461792
25-06-1991,2.359375,2.375,39200,2.375,2.359375,1.8223950862884521
26-06-1991,2.296875,2.328125,188000,2.359375,2.3125,1.7861888408660889
27-06-1991,2.28125,2.3125,260800,2.34375,2.3125,1.7861888408660889
28-06-1991,2.25,2.3125,418400,2.3125,2.25,1.7379132509231567
01-07-1991,2.203125,2.25,188800,2.25,2.203125,1.7017061710357666
02-07-1991,2.21875,2.21875,127200,2.25,2.234375,1.7258449792861938
03-07-1991,2.203125,2.203125,267200,2.28125,2.25,1.7379132509231567
05-07-1991,2.25,2.25,3200,2.25,2.25,1.7379132509231567
08-07-1991,2.25,2.25,192800,2.296875,2.296875,1.77411949634552
09-07-1991,2.234375,2.28125,359200,2.3125,2.265625,1.7547566890716553
10-07-1991,2.234375,2.25,56000,2.25,2.234375,1.7305545806884766
11-07-1991,2.25,2.25,152800,2.328125,2.3125,1.7910617589950562
12-07-1991,2.28125,2.34375,1025600,2.359375,2.296875,1.7789604663848877
15-07-1991,2.328125,2.328125,791200,2.375,2.375,1.8394695520401
16-07-1991,2.34375,2.359375,1204800,2.421875,2.421875,1.8757752180099487
17-07-1991,2.4375,2.453125,1052000,2.59375,2.59375,2.008894443511963
18-07-1991,2.625,2.625,304800,2.671875,2.671875,2.069403886795044
19-07-1991,2.609375,2.671875,73600,2.671875,2.625,2.0330982208251953
22-07-1991,2.5625,2.625,72000,2.625,2.59375,2.008894443511963
23-07-1991,2.578125,2.609375,124000,2.625,2.578125,1.9967930316925049
24-07-1991,2.578125,2.578125,39200,2.59375,2.578125,1.9967930316925049
25-07-1991,2.5625,2.5625,232800,2.578125,2.5625,1.9846906661987305
26-07-1991,2.5625,2.5625,226400,2.59375,2.59375,2.008894443511963
29-07-1991,2.59375,2.609375,6400,2.609375,2.609375,2.020996332168579
30-07-1991,2.59375,2.59375,582400,2.65625,2.625,2.0330982208251953
31-07-1991,2.53125,2.5625,698400,2.578125,2.53125,1.9604870080947876
01-08-1991,2.53125,2.53125,248800,2.578125,2.5625,1.9846906661987305
02-08-1991,2.546875,2.546875,71200,2.546875,2.546875,1.9725894927978516
05-08-1991,2.546875,2.5625,96800,2.578125,2.5625,1.9846906661987305
06-08-1991,2.5625,2.5625,457600,2.625,2.59375,2.008894443511963
07-08-1991,2.59375,2.59375,733600,2.625,2.625,2.0330982208251953
08-08-1991,2.625,2.640625,413600,2.6875,2.640625,2.0452003479003906
09-08-1991,2.625,2.625,111200,2.65625,2.65625,2.057302474975586
12-08-1991,2.640625,2.6875,223200,2.703125,2.65625,2.057302474975586
13-08-1991,2.640625,2.640625,118400,2.6875,2.6875,2.0815043449401855
14-08-1991,2.671875,2.671875,372000,2.75,2.75,2.1299126148223877
15-08-1991,2.71875,2.75,369600,2.75,2.75,2.1299126148223877
16-08-1991,2.703125,2.734375,490400,2.734375,2.703125,2.0936062335968018
19-08-1991,2.609375,2.671875,91200,2.671875,2.609375,2.020996332168579
20-08-1991,2.609375,2.609375,22400,2.625,2.625,2.0330982208251953
21-08-1991,2.609375,2.625,78400,2.625,2.625,2.0330982208251953
22-08-1991,2.5625,2.640625,292800,2.640625,2.59375,2.008894443511963
23-08-1991,2.59375,2.59375,1125600,2.75,2.75,2.1299126148223877
26-08-1991,2.734375,2.75,183200,2.78125,2.75,2.1299126148223877
27-08-1991,2.75,2.75,362400,2.84375,2.8125,2.1783204078674316
28-08-1991,2.828125,2.84375,203200,2.953125,2.9375,2.2751340866088867
29-08-1991,2.921875,2.921875,416800,3.0,2.953125,2.287236452102661
30-08-1991,2.90625,2.96875,236800,2.96875,2.921875,2.2630319595336914
03-09-1991,2.78125,2.890625,230400,2.890625,2.78125,2.154116630554199
04-09-1991,2.75,2.765625,175200,2.8125,2.765625,2.1420140266418457
05-09-1991,2.796875,2.796875,309600,2.828125,2.8125,2.1783204078674316
06-09-1991,2.78125,2.8125,55200,2.828125,2.828125,2.190422296524048
09-09-1991,2.8125,2.8125,8000,2.84375,2.84375,2.202523946762085
10-09-1991,2.8125,2.828125,452800,2.84375,2.84375,2.202523946762085
11-09-1991,2.8125,2.828125,145600,2.84375,2.84375,2.202523946762085
12-09-1991,2.84375,2.859375,48000,2.859375,2.84375,2.202523946762085
13-09-1991,2.828125,2.875,366400,2.875,2.84375,2.202523946762085
16-09-1991,2.828125,2.859375,433600,2.859375,2.84375,2.202523946762085
17-09-1991,2.84375,2.84375,648800,2.890625,2.890625,2.238830089569092
18-09-1991,2.90625,2.90625,136800,2.9375,2.9375,2.2751340866088867
19-09-1991,2.921875,2.953125,153600,3.03125,3.03125,2.3477442264556885
20-09-1991,3.0,3.078125,312000,3.078125,3.03125,2.3477442264556885
23-09-1991,2.96875,3.0625,113600,3.0625,2.96875,2.2993381023406982
24-09-1991,2.875,2.96875,77600,2.96875,2.875,2.2267262935638428
25-09-1991,2.875,2.890625,7200,2.890625,2.875,2.2267262935638428
26-09-1991,2.875,2.90625,296000,2.953125,2.953125,2.287236452102661
27-09-1991,2.953125,2.96875,70400,3.0,2.96875,2.2993381023406982
30-09-1991,2.953125,2.953125,229600,2.984375,2.984375,2.3114383220672607
01-10-1991,2.859375,2.984375,1317600,3.0,2.859375,2.214625120162964
02-10-1991,2.84375,2.84375,740800,2.9375,2.90625,2.2509305477142334
03-10-1991,2.890625,2.90625,106400,2.90625,2.890625,2.238830089569092
04-10-1991,2.859375,2.875,599200,2.890625,2.890625,2.238830089569092
07-10-1991,2.859375,2.875,973600,2.9375,2.9375,2.2751340866088867
08-10-1991,2.90625,2.9375,735200,2.953125,2.9375,2.27998423576355
09-10-1991,2.90625,2.9375,43200,2.9375,2.90625,2.2557284832000732
10-10-1991,2.875,2.90625,144000,2.921875,2.90625,2.2557284832000732
11-10-1991,2.90625,2.921875,23200,2.921875,2.921875,2.2678580284118652
14-10-1991,2.9375,2.9375,32000,2.984375,2.96875,2.3042404651641846
15-10-1991,2.984375,2.984375,181600,3.015625,3.015625,2.3406219482421875
16-10-1991,3.0,3.046875,104000,3.078125,3.0,2.328495502471924
17-10-1991,2.984375,3.0,89600,3.03125,3.03125,2.352750301361084
18-10-1991,3.0,3.046875,87200,3.046875,3.0,2.328495502471924
21-10-1991,2.984375,2.984375,3200,2.984375,2.984375,2.3163681030273438
22-10-1991,2.875,2.953125,495200,2.953125,2.875,2.2314741611480713
23-10-1991,2.890625,2.953125,95200,2.953125,2.890625,2.2436015605926514
24-10-1991,2.84375,2.875,35200,2.875,2.84375,2.2072207927703857
25-10-1991,2.75,2.8125,277600,2.8125,2.765625,2.1465818881988525
28-10-1991,2.75,2.75,181600,2.84375,2.84375,2.2072207927703857
29-10-1991,2.75,2.859375,404800,2.859375,2.765625,2.1465818881988525
30-10-1991,2.78125,2.78125,12800,2.796875,2.796875,2.1708359718322754
31-10-1991,2.796875,2.8125,37600,2.84375,2.84375,2.2072207927703857
01-11-1991,2.84375,2.859375,62400,2.9375,2.9375,2.27998423576355
04-11-1991,2.921875,2.921875,624800,3.078125,3.03125,2.352750301361084
05-11-1991,3.046875,3.046875,421600,3.140625,3.109375,2.413389205932617
06-11-1991,3.03125,3.140625,228000,3.140625,3.03125,2.352750301361084
07-11-1991,3.0,3.046875,206400,3.046875,3.03125,2.352750301361084
08-11-1991,3.015625,3.015625,96800,3.0625,3.0625,2.377004384994507
11-11-1991,3.03125,3.0625,20000,3.0625,3.03125,2.352750301361084
12-11-1991,3.0,3.0,71200,3.046875,3.03125,2.352750301361084
13-11-1991,3.03125,3.03125,127200,3.140625,3.125,2.42551589012146
14-11-1991,3.015625,3.125,102400,3.125,3.03125,2.352750301361084
15-11-1991,2.890625,3.015625,141600,3.015625,2.9375,2.27998423576355
18-11-1991,2.875,2.9375,236800,2.9375,2.875,2.2314741611480713
19-11-1991,2.8125,2.890625,143200,2.890625,2.8125,2.1829638481140137
20-11-1991,2.78125,2.796875,144000,2.796875,2.78125,2.1587073802948
21-11-1991,2.78125,2.78125,202400,2.84375,2.796875,2.1708359718322754
22-11-1991,2.75,2.78125,97600,2.78125,2.75,2.134453535079956
25-11-1991,2.75,2.75,16800,2.765625,2.765625,2.1465818881988525
26-11-1991,2.609375,2.75,346400,2.75,2.625,2.0374326705932617
27-11-1991,2.625,2.640625,76800,2.65625,2.625,2.0374326705932617
29-11-1991,2.640625,2.640625,28800,2.65625,2.65625,2.0616872310638428
02-12-1991,2.59375,2.65625,299200,2.671875,2.59375,2.013179063796997
03-12-1991,2.59375,2.59375,97600,2.65625,2.65625,2.0616872310638428
04-12-1991,2.625,2.65625,20800,2.65625,2.625,2.0374326705932617
05-12-1991,2.625,2.625,96800,2.6875,2.640625,2.049561023712158
06-12-1991,2.640625,2.640625,858400,2.65625,2.640625,2.049561023712158
09-12-1991,2.59375,2.625,57600,2.625,2.59375,2.013179063796997
10-12-1991,2.484375,2.5625,171200,2.5625,2.5,1.940412998199463
11-12-1991,2.453125,2.515625,415200,2.5625,2.546875,1.9767950773239136
12-12-1991,2.515625,2.515625,124000,2.53125,2.53125,1.964667558670044
13-12-1991,2.5,2.53125,319200,2.53125,2.5,1.940412998199463
16-12-1991,2.484375,2.5,372800,2.515625,2.515625,1.9525394439697266
17-12-1991,2.515625,2.515625,683200,2.53125,2.53125,1.964667558670044
18-12-1991,2.546875,2.546875,112800,2.578125,2.578125,2.0010502338409424
19-12-1991,2.53125,2.5625,392800,2.5625,2.546875,1.9767950773239136
20-12-1991,2.5,2.53125,164800,2.53125,2.515625,1.9525394439697266
23-12-1991,2.421875,2.5,1115200,2.5,2.421875,1.8797743320465088
24-12-1991,2.40625,2.421875,107200,2.515625,2.515625,1.9525394439697266
26-12-1991,2.5,2.5,15200,2.515625,2.5,1.940412998199463
27-12-1991,2.46875,2.5,48000,2.5,2.46875,1.9161571264266968
30-12-1991,2.421875,2.46875,920800,2.46875,2.4375,1.891903281211853
31-12-1991,2.421875,2.4375,116000,2.484375,2.4375,1.891903281211853
02-01-1992,2.390625,2.421875,732000,2.421875,2.390625,1.8555197715759277
03-01-1992,2.375,2.390625,277600,2.390625,2.375,1.8433904647827148
06-01-1992,2.3125,2.390625,528000,2.390625,2.328125,1.8070096969604492
07-01-1992,2.140625,2.3125,584000,2.3125,2.140625,1.661478042602539
08-01-1992,2.109375,2.125,692800,2.203125,2.125,1.6493504047393799
09-01-1992,2.109375,2.125,348000,2.171875,2.171875,1.6857333183288574
10-01-1992,2.140625,2.15625,840800,2.234375,2.234375,1.7342431545257568
13-01-1992,2.234375,2.234375,456000,2.328125,2.296875,1.7827534675598145
14-01-1992,2.21875,2.296875,281600,2.3125,2.21875,1.7221163511276245
15-01-1992,2.234375,2.234375,377600,2.296875,2.28125,1.7706266641616821
16-01-1992,2.28125,2.28125,80800,2.328125,2.328125,1.8070096969604492
17-01-1992,2.359375,2.359375,47200,2.421875,2.421875,1.8797743320465088
20-01-1992,2.421875,2.421875,91200,2.53125,2.515625,1.9525394439697266
21-01-1992,2.515625,2.53125,578400,2.546875,2.515625,1.9525394439697266
22-01-1992,2.484375,2.515625,300000,2.515625,2.484375,1.9282845258712769
23-01-1992,2.453125,2.46875,313600,2.5,2.453125,1.9040290117263794
24-01-1992,2.3125,2.453125,1104800,2.453125,2.3125,1.794880747795105
27-01-1992,2.25,2.296875,292800,2.296875,2.265625,1.7584986686706543
28-01-1992,2.1875,2.265625,2736800,2.265625,2.1875,1.6978607177734375
29-01-1992,2.15625,2.203125,463200,2.25,2.203125,1.7099878787994385
30-01-1992,2.140625,2.140625,405600,2.21875,2.1875,1.6978607177734375
31-01-1992,2.1875,2.203125,714400,2.296875,2.25,1.7463713884353638
03-02-1992,2.21875,2.265625,96800,2.265625,2.234375,1.7342431545257568
04-02-1992,2.1875,2.21875,355200,2.234375,2.203125,1.7099878787994385
05-02-1992,2.15625,2.203125,604000,2.203125,2.171875,1.6857333183288574
06-02-1992,2.09375,2.1875,492800,2.1875,2.09375,1.625095248222351
07-02-1992,2.078125,2.078125,704000,2.21875,2.21875,1.7221163511276245
10-02-1992,2.234375,2.234375,782400,2.34375,2.328125,1.8070096969604492
11-02-1992,2.3125,2.328125,241600,2.34375,2.3125,1.794880747795105
12-02-1992,2.28125,2.3125,446400,2.328125,2.3125,1.794880747795105
13-02-1992,2.296875,2.3125,161600,2.3125,2.296875,1.7827534675598145
14-02-1992,2.28125,2.296875,190400,2.328125,2.328125,1.8070096969604492
18-02-1992,2.28125,2.3125,504800,2.3125,2.296875,1.7827534675598145
19-02-1992,2.265625,2.28125,20800,2.28125,2.265625,1.7584986686706543
20-02-1992,2.265625,2.265625,260800,2.296875,2.296875,1.7827534675598145
21-02-1992,2.296875,2.296875,311200,2.328125,2.3125,1.794880747795105
24-02-1992,2.3125,2.328125,249600,2.34375,2.3125,1.794880747795105
25-02-1992,2.28125,2.3125,144000,2.3125,2.28125,1.7706266641616821
26-02-1992,2.25,2.265625,835200,2.265625,2.265625,1.7584986686706543
27-02-1992,2.25,2.25,67200,2.296875,2.265625,1.7584986686706543
28-02-1992,2.234375,2.234375,321600,2.265625,2.234375,1.7342431545257568
02-03-1992,2.25,2.25,588800,2.296875,2.25,1.7463713884353638
03-03-1992,2.25,2.265625,608800,2.28125,2.25,1.7463713884353638
04-03-1992,2.234375,2.234375,488000,2.25,2.25,1.7463713884353638
05-03-1992,2.265625,2.265625,607200,2.28125,2.28125,1.7706266641616821
06-03-1992,2.28125,2.28125,404800,2.296875,2.28125,1.7706266641616821
09-03-1992,2.28125,2.28125,348000,2.328125,2.328125,1.8070096969604492
10-03-1992,2.328125,2.328125,348000,2.40625,2.390625,1.8555197715759277
11-03-1992,2.390625,2.40625,376000,2.40625,2.40625,1.8676480054855347
12-03-1992,2.40625,2.4375,347200,2.4375,2.40625,1.8676480054855347
13-03-1992,2.421875,2.4375,138400,2.46875,2.46875,1.9161571264266968
16-03-1992,2.40625,2.5,122400,2.5,2.40625,1.8676480054855347
17-03-1992,2.421875,2.4375,569600,2.4375,2.4375,1.891903281211853
18-03-1992,2.40625,2.421875,46400,2.421875,2.40625,1.8676480054855347
19-03-1992,2.375,2.4375,394400,2.4375,2.40625,1.8676480054855347
20-03-1992,2.453125,2.46875,232000,2.484375,2.46875,1.9161571264266968
23-03-1992,2.5,2.5,545600,2.546875,2.5,1.940412998199463
24-03-1992,2.5,2.5,618400,2.578125,2.5625,1.9889243841171265
25-03-1992,2.5625,2.578125,116800,2.578125,2.578125,2.0010502338409424
26-03-1992,2.609375,2.609375,959200,2.734375,2.6875,2.0859427452087402
27-03-1992,2.609375,2.625,236800,2.65625,2.625,2.0374326705932617
30-03-1992,2.609375,2.625,324800,2.625,2.625,2.0374326705932617
31-03-1992,2.640625,2.640625,307200,2.65625,2.65625,2.0616872310638428
01-04-1992,2.609375,2.65625,172800,2.65625,2.609375,2.0253055095672607
02-04-1992,2.578125,2.609375,878400,2.609375,2.59375,2.013179063796997
03-04-1992,2.546875,2.5625,109600,2.5625,2.5625,1.9889243841171265
06-04-1992,2.578125,2.578125,336000,2.734375,2.734375,2.122325897216797
07-04-1992,2.6875,2.734375,612000,2.734375,2.6875,2.0859427452087402
08-04-1992,2.625,2.671875,771200,2.671875,2.625,2.0374326705932617
09-04-1992,2.609375,2.609375,170400,2.75,2.75,2.13954758644104
10-04-1992,2.734375,2.734375,213600,2.75,2.734375,2.1273927688598633
13-04-1992,2.75,2.765625,141600,2.78125,2.765625,2.1517043113708496
14-04-1992,2.78125,2.78125,228000,2.8125,2.8125,2.1881744861602783
15-04-1992,2.8125,2.8125,312000,2.828125,2.828125,2.2003300189971924
16-04-1992,2.8125,2.8125,39200,2.828125,2.8125,2.1881744861602783
20-04-1992,2.8125,2.8125,245600,2.890625,2.890625,2.2489569187164307
21-04-1992,2.875,2.921875,337600,2.921875,2.90625,2.2611136436462402
22-04-1992,2.875,2.890625,8800,2.890625,2.875,2.2367990016937256
23-04-1992,2.84375,2.875,1366400,2.984375,2.875,2.2367990016937256
24-04-1992,3.0,3.03125,687200,3.171875,3.0,2.3340518474578857
27-04-1992,3.03125,3.0625,511200,3.09375,3.046875,2.3705217838287354
28-04-1992,3.015625,3.046875,234400,3.046875,3.03125,2.3583641052246094
29-04-1992,3.03125,3.046875,237600,3.046875,3.03125,2.3583641052246094
30-04-1992,3.03125,3.046875,1008800,3.0625,3.046875,2.3705217838287354
01-05-1992,3.03125,3.03125,146400,3.046875,3.046875,2.3705217838287354
04-05-1992,3.0625,3.0625,251200,3.078125,3.0625,2.382678985595703
05-05-1992,3.046875,3.046875,532000,3.078125,3.078125,2.394834518432617
06-05-1992,3.015625,3.078125,792800,3.078125,3.015625,2.3462088108062744
07-05-1992,2.96875,3.015625,61600,3.015625,2.96875,2.309739828109741
08-05-1992,2.9375,3.0,42400,3.0,2.953125,2.2975823879241943
11-05-1992,2.90625,2.953125,91200,2.953125,2.90625,2.2611136436462402
12-05-1992,2.75,2.921875,1191200,2.921875,2.796875,2.1760191917419434
13-05-1992,2.765625,2.796875,261600,2.796875,2.765625,2.1517043113708496
14-05-1992,2.6875,2.765625,1236800,2.84375,2.84375,2.2124879360198975
15-05-1992,2.8125,2.828125,509600,2.90625,2.890625,2.2489569187164307
18-05-1992,2.90625,2.90625,431200,3.015625,3.0,2.3340518474578857
19-05-1992,2.953125,3.0,572000,3.046875,3.046875,2.3705217838287354
20-05-1992,3.0625,3.0625,200800,3.09375,3.09375,2.4069907665252686
21-05-1992,3.078125,3.078125,946400,3.15625,3.09375,2.4069907665252686
22-05-1992,3.078125,3.09375,230400,3.15625,3.140625,2.443459987640381
26-05-1992,3.125,3.140625,1300800,3.1875,3.1875,2.479931354522705
27-05-1992,3.125,3.203125,1122400,3.25,3.125,2.4313042163848877
28-05-1992,3.078125,3.140625,627200,3.140625,3.125,2.4313042163848877
29-05-1992,3.078125,3.125,368800,3.125,3.09375,2.4069907665252686
01-06-1992,3.078125,3.078125,348800,3.171875,3.171875,2.4677743911743164
02-06-1992,3.125,3.140625,108000,3.15625,3.140625,2.443459987640381
03-06-1992,3.125,3.15625,1278400,3.1875,3.15625,2.4556174278259277
04-06-1992,3.125,3.125,1169600,3.140625,3.140625,2.443459987640381
05-06-1992,3.140625,3.15625,816800,3.1875,3.1875,2.479931354522705
08-06-1992,3.21875,3.21875,1822400,3.375,3.3125,2.5771830081939697
09-06-1992,3.28125,3.3125,2077600,3.34375,3.3125,2.5771830081939697
10-06-1992,3.21875,3.3125,778400,3.3125,3.28125,2.552870750427246
11-06-1992,3.28125,3.28125,438400,3.40625,3.40625,2.6501219272613525
12-06-1992,3.34375,3.375,2042400,3.375,3.34375,2.6014957427978516
15-06-1992,3.296875,3.328125,2438400,3.328125,3.3125,2.5771830081939697
16-06-1992,3.296875,3.328125,660800,3.328125,3.296875,2.56502628326416
17-06-1992,3.21875,3.3125,673600,3.3125,3.234375,2.516400098800659
18-06-1992,3.21875,3.21875,948800,3.265625,3.234375,2.516400098800659
19-06-1992,3.234375,3.25,417600,3.265625,3.234375,2.516400098800659
22-06-1992,3.203125,3.203125,568000,3.21875,3.203125,2.4920871257781982
23-06-1992,3.203125,3.203125,518400,3.21875,3.203125,2.4920871257781982
24-06-1992,3.171875,3.21875,224000,3.21875,3.21875,2.5042431354522705
25-06-1992,3.125,3.21875,307200,3.21875,3.125,2.4313042163848877
26-06-1992,3.109375,3.125,629600,3.140625,3.140625,2.443459987640381
29-06-1992,3.125,3.125,1169600,3.1875,3.171875,2.4677743911743164
30-06-1992,3.15625,3.1875,1156800,3.1875,3.1875,2.479931354522705
01-07-1992,3.203125,3.21875,694400,3.25,3.25,2.5285558700561523
02-07-1992,3.25,3.28125,2007200,3.296875,3.28125,2.552870750427246
06-07-1992,3.296875,3.3125,771200,3.328125,3.3125,2.5771830081939697
07-07-1992,3.3125,3.3125,655200,3.359375,3.328125,2.589339256286621
08-07-1992,3.3125,3.328125,480800,3.34375,3.328125,2.589339256286621
09-07-1992,3.328125,3.34375,424000,3.375,3.359375,2.618570566177368
10-07-1992,3.328125,3.390625,568800,3.390625,3.328125,2.594210386276245
13-07-1992,3.328125,3.328125,624800,3.359375,3.359375,2.618570566177368
14-07-1992,3.390625,3.390625,627200,3.625,3.578125,2.7890820503234863
15-07-1992,3.515625,3.59375,465600,3.609375,3.53125,2.7525436878204346
16-07-1992,3.390625,3.5,143200,3.5,3.421875,2.667288064956665
17-07-1992,3.421875,3.4375,45600,3.453125,3.4375,2.67946720123291
20-07-1992,3.390625,3.4375,645600,3.453125,3.390625,2.6429290771484375
21-07-1992,3.390625,3.390625,224000,3.421875,3.40625,2.6551084518432617
22-07-1992,3.40625,3.40625,235200,3.484375,3.484375,2.716005325317383
23-07-1992,3.46875,3.5,112000,3.515625,3.5,2.7281839847564697
24-07-1992,3.5,3.5,329600,3.609375,3.609375,2.8134405612945557
27-07-1992,3.5625,3.609375,66400,3.609375,3.59375,2.8012614250183105
28-07-1992,3.53125,3.59375,91200,3.59375,3.5625,2.776902914047241
29-07-1992,3.546875,3.5625,84800,3.578125,3.578125,2.7890820503234863
30-07-1992,3.5625,3.5625,565600,3.640625,3.640625,2.837798833847046
31-07-1992,3.625,3.640625,500800,3.65625,3.640625,2.837798833847046
03-08-1992,3.625,3.625,492000,3.703125,3.703125,2.88651704788208
04-08-1992,3.6875,3.6875,398400,3.71875,3.71875,2.8986964225769043
05-08-1992,3.375,3.59375,268800,3.59375,3.40625,2.6551084518432617
06-08-1992,3.171875,3.25,1166400,3.265625,3.25,2.533313274383545
07-08-1992,3.25,3.25,996000,3.515625,3.515625,2.7403643131256104
10-08-1992,3.5,3.515625,88000,3.5625,3.546875,2.7647225856781006
11-08-1992,3.546875,3.546875,2608000,3.5625,3.546875,2.7647225856781006
12-08-1992,3.5625,3.5625,92800,3.59375,3.59375,2.8012614250183105
13-08-1992,3.609375,3.625,684800,3.734375,3.734375,2.910875082015991
14-08-1992,3.734375,3.78125,1344000,3.84375,3.75,2.9230539798736572
17-08-1992,3.671875,3.71875,1498400,3.71875,3.6875,2.8743374347686768
18-08-1992,3.578125,3.671875,823200,3.6875,3.59375,2.8012614250183105
19-08-1992,3.5,3.5,844800,3.6875,3.5625,2.776902914047241
20-08-1992,3.5625,3.625,7611200,3.640625,3.59375,2.8012614250183105
21-08-1992,3.59375,3.609375,1631200,3.640625,3.59375,2.8012614250183105
24-08-1992,3.578125,3.578125,1412000,3.609375,3.578125,2.7890820503234863
25-08-1992,3.578125,3.578125,1002400,3.71875,3.671875,2.8621585369110107
26-08-1992,3.6875,3.6875,1988000,3.75,3.75,2.9230539798736572
27-08-1992,3.71875,3.734375,872800,3.796875,3.78125,2.9474146366119385
28-08-1992,3.8125,3.8125,1732800,3.9375,3.9375,3.069206953048706
31-08-1992,3.84375,3.90625,1392800,3.984375,3.875,3.0204899311065674
01-09-1992,3.859375,3.875,740000,3.9375,3.90625,3.044849157333374
02-09-1992,3.875,3.9375,458400,3.953125,3.890625,3.0326693058013916
03-09-1992,3.890625,3.90625,617600,3.921875,3.921875,3.057027578353882
04-09-1992,3.921875,3.921875,190400,3.96875,3.953125,3.0813868045806885
08-09-1992,3.953125,3.953125,1150400,4.09375,4.078125,3.1788218021392822
09-09-1992,4.0625,4.078125,660000,4.09375,4.09375,3.1910016536712646
10-09-1992,4.0625,4.09375,809600,4.109375,4.078125,3.1788218021392822
11-09-1992,4.0625,4.078125,549600,4.109375,4.109375,3.2031822204589844
14-09-1992,4.109375,4.140625,684000,4.171875,4.125,3.215359926223755
15-09-1992,4.109375,4.125,557600,4.140625,4.109375,3.2031822204589844
16-09-1992,4.09375,4.109375,723200,4.171875,4.125,3.215359926223755
17-09-1992,4.125,4.125,565600,4.28125,4.21875,3.288435697555542
18-09-1992,4.1875,4.1875,668000,4.3125,4.3125,3.36151385307312
21-09-1992,4.328125,4.328125,808000,4.34375,4.34375,3.385871171951294
22-09-1992,4.296875,4.3125,662400,4.375,4.359375,3.3980515003204346
23-09-1992,4.359375,4.375,898400,4.46875,4.375,3.4102306365966797
24-09-1992,4.390625,4.390625,1256800,4.484375,4.46875,3.483307123184204
25-09-1992,4.203125,4.421875,1837600,4.4375,4.25,3.3127939701080322
28-09-1992,4.109375,4.25,1749600,4.25,4.125,3.215359926223755
29-09-1992,4.171875,4.203125,276800,4.234375,4.234375,3.3006157875061035
30-09-1992,4.15625,4.21875,330400,4.234375,4.15625,3.2397193908691406
01-10-1992,4.03125,4.140625,378400,4.140625,4.03125,3.142284631729126
02-10-1992,4.015625,4.046875,772800,4.078125,4.046875,3.1544625759124756
05-10-1992,3.953125,4.046875,312000,4.046875,3.96875,3.09356689453125
06-10-1992,3.90625,3.96875,885600,3.96875,3.9375,3.069206953048706
07-10-1992,3.953125,3.953125,649600,4.015625,3.984375,3.105746269226074
08-10-1992,3.96875,3.96875,266400,4.0625,4.0,3.1228229999542236
09-10-1992,3.90625,3.96875,112000,4.03125,3.9375,3.074028968811035
12-10-1992,3.9375,3.9375,351200,3.953125,3.953125,3.0862274169921875
13-10-1992,3.890625,3.9375,412000,3.953125,3.9375,3.074028968811035
14-10-1992,3.921875,3.9375,341600,3.953125,3.9375,3.074028968811035
15-10-1992,3.90625,3.9375,205600,3.9375,3.90625,3.0496327877044678
16-10-1992,3.921875,3.921875,1151200,4.078125,4.0625,3.171617031097412
19-10-1992,4.0625,4.0625,756000,4.3125,4.28125,3.342397928237915
20-10-1992,4.203125,4.265625,209600,4.265625,4.21875,3.293602466583252
21-10-1992,4.140625,4.203125,104800,4.203125,4.15625,3.244809150695801
22-10-1992,3.953125,4.140625,365600,4.140625,3.953125,3.0862274169921875
23-10-1992,3.9375,3.96875,101600,3.96875,3.953125,3.0862274169921875
26-10-1992,3.953125,3.953125,396800,4.015625,4.0,3.1228229999542236
27-10-1992,3.8125,3.984375,318400,3.984375,3.859375,3.0130362510681152
28-10-1992,3.71875,3.859375,920800,3.859375,3.828125,2.9886391162872314
29-10-1992,3.828125,3.828125,348000,3.90625,3.84375,3.0008370876312256
30-10-1992,3.8125,3.875,143200,3.875,3.8125,2.976440668106079
02-11-1992,3.828125,3.828125,156800,3.875,3.875,3.0252349376678467
03-11-1992,3.75,3.875,296800,3.875,3.75,2.9276461601257324
04-11-1992,3.65625,3.765625,464000,3.78125,3.65625,2.854456663131714
05-11-1992,3.46875,3.625,1245600,3.625,3.484375,2.7202725410461426
06-11-1992,3.53125,3.53125,1823200,3.671875,3.65625,2.854456663131714
09-11-1992,3.5,3.625,1322400,3.65625,3.546875,2.769066333770752
10-11-1992,3.5625,3.5625,1669600,3.625,3.625,2.830056667327881
11-11-1992,3.5625,3.625,551200,3.625,3.5625,2.7812657356262207
12-11-1992,3.5625,3.625,1320800,3.640625,3.578125,2.793463945388794
13-11-1992,3.59375,3.609375,324000,3.640625,3.625,2.830056667327881
16-11-1992,3.609375,3.609375,257600,3.65625,3.65625,2.854456663131714
17-11-1992,3.625,3.625,304000,3.640625,3.625,2.830056667327881
18-11-1992,3.625,3.625,693600,3.640625,3.640625,2.842257261276245
19-11-1992,3.46875,3.609375,821600,3.640625,3.5,2.7324700355529785
20-11-1992,3.53125,3.53125,536800,3.59375,3.59375,2.8056626319885254
23-11-1992,3.5625,3.5625,660000,3.671875,3.625,2.830056667327881
24-11-1992,3.578125,3.609375,503200,3.609375,3.59375,2.8056626319885254
25-11-1992,3.578125,3.578125,96000,3.609375,3.59375,2.8056626319885254
27-11-1992,3.578125,3.59375,230400,3.625,3.625,2.830056667327881
30-11-1992,3.53125,3.625,539200,3.625,3.546875,2.769066333770752
01-12-1992,3.53125,3.546875,1116800,3.546875,3.53125,2.7568678855895996
02-12-1992,3.53125,3.53125,721600,3.578125,3.578125,2.793463945388794
03-12-1992,3.421875,3.5625,1191200,3.5625,3.4375,2.6836769580841064
04-12-1992,3.421875,3.4375,1249600,3.5,3.5,2.7324700355529785
07-12-1992,3.484375,3.484375,167200,3.546875,3.5,2.7324700355529785
08-12-1992,3.453125,3.5,580000,3.515625,3.484375,2.7202725410461426
09-12-1992,3.484375,3.5,374400,3.546875,3.53125,2.7568678855895996
10-12-1992,3.484375,3.546875,1601600,3.609375,3.609375,2.8178606033325195
11-12-1992,3.65625,3.65625,151200,3.703125,3.671875,2.866655111312866
14-12-1992,3.609375,3.671875,920000,3.671875,3.65625,2.854456663131714
15-12-1992,3.609375,3.640625,406400,3.640625,3.625,2.830056667327881
16-12-1992,3.59375,3.609375,402400,3.625,3.59375,2.8056626319885254
17-12-1992,3.5625,3.609375,52800,3.609375,3.5625,2.7812657356262207
18-12-1992,3.578125,3.59375,295200,3.59375,3.59375,2.8056626319885254
21-12-1992,3.546875,3.578125,488000,3.578125,3.546875,2.769066333770752
22-12-1992,3.53125,3.5625,960800,3.5625,3.546875,2.769066333770752
23-12-1992,3.515625,3.546875,1008000,3.546875,3.515625,2.744668960571289
24-12-1992,3.53125,3.546875,655200,3.59375,3.59375,2.8056626319885254
28-12-1992,3.53125,3.578125,97600,3.578125,3.546875,2.769066333770752
29-12-1992,3.53125,3.546875,596000,3.59375,3.5625,2.7812657356262207
30-12-1992,3.546875,3.578125,639200,3.578125,3.546875,2.769066333770752
31-12-1992,3.5625,3.5625,376000,3.6875,3.671875,2.866655111312866
04-01-1993,3.609375,3.6875,597600,3.71875,3.609375,2.8178606033325195
05-01-1993,3.578125,3.609375,715200,3.6875,3.6875,2.8788533210754395
06-01-1993,3.59375,3.6875,928800,3.6875,3.609375,2.8178606033325195
07-01-1993,3.5625,3.609375,333600,3.609375,3.578125,2.793463945388794
08-01-1993,3.46875,3.578125,1617600,3.578125,3.46875,2.708073377609253
11-01-1993,3.375,3.484375,410400,3.484375,3.390625,2.6528165340423584
12-01-1993,3.359375,3.390625,269600,3.40625,3.40625,2.6650424003601074
13-01-1993,3.359375,3.40625,826400,3.484375,3.46875,2.7139413356781006
14-01-1993,3.34375,3.4375,619200,3.453125,3.34375,2.616142511367798
15-01-1993,3.359375,3.375,1232800,3.421875,3.390625,2.6528165340423584
18-01-1993,3.359375,3.390625,460000,3.390625,3.375,2.6405930519104004
19-01-1993,3.359375,3.359375,1157600,3.484375,3.453125,2.7017159461975098
20-01-1993,3.4375,3.453125,132800,3.484375,3.46875,2.7139413356781006
21-01-1993,3.4375,3.4375,272800,3.5,3.5,2.7383904457092285
22-01-1993,3.5,3.515625,540800,3.59375,3.59375,2.8117401599884033
25-01-1993,3.578125,3.578125,969600,3.703125,3.6875,2.885091543197632
26-01-1993,3.78125,3.8125,1224000,3.875,3.78125,2.9584412574768066
27-01-1993,3.703125,3.734375,636000,3.765625,3.75,2.9339911937713623
28-01-1993,3.75,3.765625,773600,3.90625,3.90625,3.0562398433685303
29-01-1993,3.890625,3.90625,492800,4.0,3.96875,3.1051409244537354
01-02-1993,4.0,4.0,1876800,4.078125,4.0625,3.178490400314331
02-02-1993,4.046875,4.046875,1044000,4.09375,4.09375,3.202939987182617
03-02-1993,4.09375,4.09375,1448000,4.359375,4.296875,3.361863851547241
04-02-1993,4.328125,4.328125,1330400,4.4375,4.4375,3.4718868732452393
05-02-1993,4.4375,4.4375,1606400,4.515625,4.5,3.5207905769348145
08-02-1993,4.46875,4.5,1975200,4.5,4.5,3.5207905769348145
09-02-1993,4.40625,4.5,756000,4.5,4.421875,3.4596633911132812
10-02-1993,4.359375,4.421875,800000,4.453125,4.375,3.4229896068573
11-02-1993,4.359375,4.359375,971200,4.5,4.484375,3.5085644721984863
12-02-1993,4.46875,4.484375,932000,4.484375,4.484375,3.5085644721984863
16-02-1993,4.34375,4.46875,292800,4.46875,4.34375,3.3985393047332764
17-02-1993,4.34375,4.359375,632800,4.40625,4.390625,3.4352145195007324
18-02-1993,4.421875,4.421875,604800,4.484375,4.4375,3.4718868732452393
19-02-1993,4.421875,4.4375,3408800,4.515625,4.5,3.5207905769348145
22-02-1993,4.5,4.5,1140000,4.609375,4.5625,3.5696892738342285
23-02-1993,4.5,4.59375,664000,4.59375,4.546875,3.5574636459350586
24-02-1993,4.46875,4.515625,499200,4.515625,4.484375,3.5085644721984863
25-02-1993,4.359375,4.484375,259200,4.484375,4.359375,3.41076397895813
26-02-1993,4.359375,4.390625,128000,4.421875,4.40625,3.447438955307007
01-03-1993,4.421875,4.4375,1396000,4.53125,4.4375,3.4718868732452393
02-03-1993,4.4375,4.46875,332800,4.484375,4.453125,3.4841136932373047
03-03-1993,4.46875,4.46875,4088800,4.84375,4.78125,3.740839958190918
04-03-1993,4.640625,4.75,913600,4.78125,4.734375,3.704162359237671
05-03-1993,4.6875,4.71875,335200,4.734375,4.6875,3.667487382888794
08-03-1993,4.703125,4.703125,472000,4.796875,4.78125,3.740839958190918
09-03-1993,4.75,4.796875,324000,4.796875,4.78125,3.740839958190918
10-03-1993,4.734375,4.78125,199200,4.8125,4.8125,3.7652881145477295
11-03-1993,4.796875,4.8125,213600,4.921875,4.890625,3.8264129161834717
12-03-1993,4.796875,4.921875,702400,4.921875,4.84375,3.7897396087646484
15-03-1993,4.84375,4.84375,209600,4.875,4.875,3.81418776512146
16-03-1993,4.84375,4.859375,316800,4.875,4.859375,3.8019614219665527
17-03-1993,4.859375,4.875,136800,4.984375,4.984375,3.8997607231140137
18-03-1993,4.921875,4.96875,444000,5.0,5.0,3.911989212036133
19-03-1993,4.96875,4.984375,300800,5.0,4.96875,3.8875386714935303
22-03-1993,4.96875,4.984375,640800,5.0,4.984375,3.8997607231140137
23-03-1993,4.96875,5.015625,100800,5.015625,4.96875,3.8875386714935303
24-03-1993,4.96875,4.96875,574400,5.078125,4.96875,3.8875386714935303
25-03-1993,4.84375,4.90625,1020000,4.921875,4.84375,3.7897396087646484
26-03-1993,4.8125,4.84375,753600,4.921875,4.90625,3.838637113571167
29-03-1993,4.921875,4.921875,589600,4.984375,4.984375,3.8997607231140137
30-03-1993,5.0,5.0,663200,5.03125,5.03125,3.9364356994628906
31-03-1993,4.96875,5.03125,558400,5.03125,5.015625,3.9242117404937744
01-04-1993,4.984375,5.03125,537600,5.03125,5.0,3.911989212036133
02-04-1993,4.859375,4.953125,240800,4.953125,4.890625,3.8264129161834717
05-04-1993,4.875,4.90625,292800,4.90625,4.90625,3.838637113571167
06-04-1993,4.875,4.90625,604800,4.90625,4.875,3.81418776512146
07-04-1993,4.8125,4.84375,860000,4.875,4.875,3.81418776512146
08-04-1993,4.859375,4.859375,24000,4.875,4.875,3.8200643062591553
12-04-1993,4.859375,4.859375,325600,4.96875,4.96875,3.893528938293457
13-04-1993,4.84375,4.96875,1076800,5.03125,4.875,3.8200643062591553
14-04-1993,4.84375,4.890625,447200,4.890625,4.84375,3.795578718185425
15-04-1993,4.8125,4.875,231200,4.921875,4.8125,3.771090030670166
16-04-1993,4.796875,4.828125,356800,4.84375,4.84375,3.795578718185425
19-04-1993,4.828125,4.828125,173600,4.890625,4.875,3.8200643062591553
20-04-1993,4.90625,4.90625,1133600,5.0625,4.984375,3.9057693481445312
21-04-1993,4.875,5.015625,185600,5.015625,4.875,3.8200643062591553
22-04-1993,4.671875,4.84375,335200,4.84375,4.671875,3.660895824432373
23-04-1993,4.46875,4.671875,786400,4.671875,4.5,3.5262153148651123
26-04-1993,4.515625,4.53125,367200,4.640625,4.625,3.6241648197174072
27-04-1993,4.625,4.65625,108000,4.65625,4.640625,3.636409282684326
28-04-1993,4.625,4.625,189600,4.640625,4.640625,3.636409282684326
29-04-1993,4.625,4.65625,383200,4.75,4.75,3.722114086151123
30-04-1993,4.75,4.75,779200,4.96875,4.921875,3.8567962646484375
03-05-1993,4.953125,4.953125,249600,4.984375,4.953125,3.8812856674194336
04-05-1993,4.90625,4.921875,1332800,4.953125,4.921875,3.8567962646484375
05-05-1993,4.921875,4.921875,65600,4.9375,4.921875,3.8567962646484375
06-05-1993,4.921875,4.921875,664800,5.0,4.9375,3.869042158126831
07-05-1993,4.90625,4.921875,186400,4.96875,4.921875,3.8567962646484375
10-05-1993,4.8125,4.9375,828000,4.9375,4.8125,3.771090030670166
11-05-1993,4.78125,4.78125,1120800,4.953125,4.9375,3.869042158126831
12-05-1993,4.90625,4.9375,852000,4.984375,4.953125,3.8812856674194336
13-05-1993,4.90625,4.90625,702400,5.09375,5.0625,3.9669904708862305
14-05-1993,5.0625,5.0625,931200,5.265625,5.171875,4.052695274353027
17-05-1993,5.15625,5.171875,390400,5.203125,5.203125,4.077186584472656
18-05-1993,5.203125,5.203125,340800,5.328125,5.296875,4.150649070739746
19-05-1993,5.1875,5.3125,412800,5.3125,5.234375,4.101675510406494
20-05-1993,5.21875,5.21875,216000,5.25,5.234375,4.101675510406494
21-05-1993,5.203125,5.234375,400000,5.234375,5.21875,4.0894293785095215
24-05-1993,5.21875,5.25,496000,5.25,5.234375,4.101675510406494
25-05-1993,5.171875,5.1875,400800,5.25,5.1875,4.064940929412842
26-05-1993,5.15625,5.1875,188000,5.203125,5.203125,4.077186584472656
27-05-1993,5.203125,5.203125,511200,5.3125,5.3125,4.162890434265137
28-05-1993,5.28125,5.296875,473600,5.3125,5.3125,4.162890434265137
01-06-1993,5.328125,5.34375,619200,5.4375,5.40625,4.236356258392334
02-06-1993,5.40625,5.40625,522400,5.625,5.5625,4.358790397644043
03-06-1993,5.484375,5.5625,403200,5.5625,5.515625,4.3220601081848145
04-06-1993,5.484375,5.5,889600,5.515625,5.5,4.309817314147949
07-06-1993,5.484375,5.5,482400,5.515625,5.5,4.309817314147949
08-06-1993,5.421875,5.484375,277600,5.484375,5.4375,4.26084041595459
09-06-1993,5.40625,5.40625,262400,5.5,5.5,4.309817314147949
10-06-1993,5.4375,5.484375,779200,5.484375,5.4375,4.26084041595459
11-06-1993,5.234375,5.40625,606400,5.40625,5.234375,4.101675510406494
14-06-1993,5.125,5.21875,763200,5.21875,5.125,4.015966415405273
15-06-1993,5.125,5.125,288800,5.15625,5.125,4.015966415405273
16-06-1993,5.140625,5.140625,219200,5.203125,5.203125,4.077186584472656
17-06-1993,5.21875,5.21875,193600,5.328125,5.25,4.113918781280518
18-06-1993,5.265625,5.28125,224800,5.296875,5.265625,4.126160621643066
21-06-1993,5.28125,5.28125,292800,5.359375,5.34375,4.187378883361816
22-06-1993,5.265625,5.34375,1112000,5.34375,5.265625,4.126160621643066
23-06-1993,5.265625,5.265625,2466400,5.296875,5.296875,4.150649070739746
24-06-1993,5.0625,5.296875,637600,5.296875,5.125,4.015966415405273
25-06-1993,5.109375,5.125,36000,5.125,5.125,4.015966415405273
28-06-1993,5.125,5.125,204800,5.140625,5.140625,4.028210163116455
29-06-1993,4.984375,5.109375,648000,5.125,5.046875,3.9547476768493652
30-06-1993,5.03125,5.0625,552000,5.09375,5.09375,3.9914796352386475
01-07-1993,5.015625,5.078125,376800,5.078125,5.046875,3.9547476768493652
02-07-1993,5.015625,5.0625,100000,5.0625,5.046875,3.9547476768493652
06-07-1993,5.0,5.046875,437600,5.09375,5.0,3.9180166721343994
07-07-1993,4.96875,4.96875,1369600,5.078125,5.078125,3.9792346954345703
08-07-1993,5.078125,5.078125,955200,5.1875,5.1875,4.064940929412842
09-07-1993,5.171875,5.171875,1352000,5.25,5.25,4.119874954223633
12-07-1993,5.28125,5.28125,900000,5.34375,5.3125,4.168917179107666
13-07-1993,5.28125,5.3125,100000,5.3125,5.28125,4.1443939208984375
14-07-1993,5.28125,5.28125,538400,5.3125,5.28125,4.1443939208984375
15-07-1993,5.21875,5.3125,338400,5.3125,5.25,4.119874954223633
16-07-1993,5.234375,5.25,147200,5.265625,5.25,4.119874954223633
19-07-1993,5.25,5.296875,417600,5.296875,5.28125,4.1443939208984375
20-07-1993,5.25,5.25,713600,5.3125,5.3125,4.168917179107666
21-07-1993,5.3125,5.3125,395200,5.34375,5.3125,4.168917179107666
22-07-1993,5.28125,5.3125,314400,5.3125,5.296875,4.1566596031188965
23-07-1993,5.25,5.296875,341600,5.3125,5.3125,4.168917179107666
26-07-1993,5.296875,5.34375,196000,5.34375,5.296875,4.1566596031188965
27-07-1993,5.21875,5.265625,191200,5.28125,5.25,4.119874954223633
28-07-1993,5.234375,5.25,356800,5.296875,5.265625,4.132133483886719
29-07-1993,5.25,5.265625,98400,5.3125,5.296875,4.1566596031188965
30-07-1993,5.3125,5.3125,57600,5.328125,5.328125,4.181180000305176
02-08-1993,5.3125,5.328125,1029600,5.46875,5.46875,4.291533946990967
03-08-1993,5.484375,5.484375,356000,5.578125,5.5625,4.365102767944336
04-08-1993,5.546875,5.546875,400000,5.65625,5.625,4.414148807525635
05-08-1993,5.609375,5.609375,56000,5.640625,5.625,4.414148807525635
06-08-1993,5.578125,5.625,348800,5.625,5.59375,4.38962459564209
09-08-1993,5.609375,5.609375,344800,5.6875,5.6875,4.463197231292725
10-08-1993,5.6875,5.6875,632800,5.75,5.75,4.512241363525391
11-08-1993,5.78125,5.78125,784800,6.0,6.0,4.7084245681762695
12-08-1993,5.984375,6.0,1103200,6.21875,6.015625,4.7206878662109375
13-08-1993,5.9375,6.03125,226400,6.03125,5.9375,4.65938138961792
16-08-1993,5.9375,5.9375,448000,5.984375,5.984375,4.6961669921875
17-08-1993,6.0625,6.0625,640000,6.25,6.25,4.904610633850098
18-08-1993,6.234375,6.234375,805600,6.484375,6.421875,5.039489269256592
19-08-1993,6.3125,6.4375,424000,6.46875,6.3125,4.953660488128662
20-08-1993,6.3125,6.3125,914400,6.453125,6.453125,5.0640106201171875
23-08-1993,6.453125,6.46875,964800,6.703125,6.703125,5.260196685791016
24-08-1993,6.53125,6.703125,704000,6.703125,6.5625,5.14984130859375
25-08-1993,6.4375,6.5625,753600,6.578125,6.453125,5.0640106201171875
26-08-1993,6.25,6.453125,817600,6.453125,6.296875,4.9413957595825195
27-08-1993,6.03125,6.28125,627200,6.28125,6.125,4.806518077850342
30-08-1993,6.109375,6.125,529600,6.25,6.21875,4.880087852478027
31-08-1993,6.171875,6.234375,888000,6.328125,6.28125,4.929133415222168
01-09-1993,6.28125,6.28125,388800,6.390625,6.375,5.002702236175537
02-09-1993,6.28125,6.375,286400,6.375,6.28125,4.929133415222168
03-09-1993,6.28125,6.28125,135200,6.328125,6.296875,4.9413957595825195
07-09-1993,6.125,6.296875,236800,6.328125,6.125,4.806518077850342
08-09-1993,5.953125,6.125,388800,6.125,5.953125,4.671640396118164
09-09-1993,5.921875,5.953125,533600,5.984375,5.96875,4.683902740478516
10-09-1993,5.953125,5.96875,121600,5.984375,5.984375,4.6961669921875
13-09-1993,5.921875,5.984375,472800,6.03125,5.921875,4.647116661071777
14-09-1993,5.90625,5.953125,633600,5.96875,5.9375,4.65938138961792
15-09-1993,5.921875,5.9375,994400,6.046875,6.0,4.7084245681762695
16-09-1993,6.0,6.0,152800,6.03125,6.0,4.7084245681762695
17-09-1993,5.890625,5.96875,127200,5.96875,5.9375,4.65938138961792
20-09-1993,5.9375,5.9375,248000,5.96875,5.96875,4.683902740478516
21-09-1993,5.96875,5.96875,218400,6.03125,6.015625,4.7206878662109375
22-09-1993,5.96875,6.0,99200,6.03125,5.96875,4.683902740478516
23-09-1993,5.953125,5.984375,232800,5.984375,5.984375,4.6961669921875
24-09-1993,5.953125,5.96875,357600,6.0,5.96875,4.683902740478516
27-09-1993,5.953125,5.953125,441600,6.0,5.984375,4.6961669921875
28-09-1993,5.921875,5.984375,326400,5.984375,5.9375,4.65938138961792
29-09-1993,5.9375,5.9375,1200800,6.453125,6.453125,5.0640106201171875
30-09-1993,6.453125,6.453125,755200,6.625,6.625,5.198888301849365
01-10-1993,6.59375,6.59375,599200,6.71875,6.71875,5.272456645965576
04-10-1993,6.640625,6.71875,248000,6.75,6.640625,5.211149215698242
05-10-1993,6.578125,6.65625,122400,6.65625,6.578125,5.162104606628418
06-10-1993,6.5,6.578125,114400,6.578125,6.53125,5.125317573547363
07-10-1993,6.4375,6.5,224000,6.5,6.484375,5.088534355163574
08-10-1993,6.40625,6.484375,245600,6.484375,6.421875,5.045324325561523
11-10-1993,6.25,6.421875,288000,6.421875,6.25,4.910289287567139
12-10-1993,6.125,6.25,272800,6.25,6.125,4.812083721160889
13-10-1993,5.96875,6.078125,826400,6.109375,5.984375,4.701604843139648
14-10-1993,6.0,6.09375,388000,6.125,6.03125,4.738429546356201
15-10-1993,5.828125,6.0,707200,6.0,5.875,4.615672588348389
18-10-1993,5.71875,5.875,719200,5.875,5.75,4.5174665451049805
19-10-1993,5.484375,5.75,1467200,5.875,5.828125,4.578843593597412
20-10-1993,5.3125,5.796875,1626400,5.796875,5.3125,4.173746585845947
21-10-1993,5.4375,5.4375,3216000,5.6875,5.5,4.321053981781006
22-10-1993,5.375,5.5,928800,5.5,5.375,4.2228498458862305
25-10-1993,5.28125,5.375,901600,5.421875,5.28125,4.149194240570068
26-10-1993,5.0,5.28125,1536800,5.3125,5.03125,3.9527835845947266
27-10-1993,5.0625,5.0625,1416000,5.1875,5.1875,4.075541019439697
28-10-1993,5.1875,5.1875,1215200,5.453125,5.453125,4.284228324890137
29-10-1993,5.328125,5.421875,412800,5.46875,5.34375,4.198298454284668
01-11-1993,5.34375,5.359375,379200,5.484375,5.453125,4.284228324890137
02-11-1993,5.453125,5.453125,553600,5.578125,5.5625,4.370156288146973
03-11-1993,5.578125,5.609375,540800,5.671875,5.625,4.419260501861572
04-11-1993,5.625,5.65625,345600,5.734375,5.625,4.419260501861572
05-11-1993,5.53125,5.625,112800,5.625,5.5625,4.370156288146973
08-11-1993,5.46875,5.5625,207200,5.5625,5.46875,4.29650354385376
09-11-1993,5.1875,5.46875,542400,5.46875,5.21875,4.100092887878418
10-11-1993,5.21875,5.25,191200,5.28125,5.265625,4.13692045211792
11-11-1993,5.203125,5.28125,564800,5.40625,5.21875,4.100092887878418
12-11-1993,5.0625,5.203125,1202400,5.203125,5.203125,4.087818145751953
15-11-1993,5.140625,5.203125,675200,5.234375,5.140625,4.0387139320373535
16-11-1993,4.875,4.96875,827200,4.984375,4.9375,3.8791279792785645
17-11-1993,4.9375,5.0,1617600,5.203125,5.203125,4.087818145751953
18-11-1993,5.15625,5.203125,463200,5.359375,5.296875,4.161471366882324
19-11-1993,5.21875,5.25,85600,5.265625,5.265625,4.13692045211792
22-11-1993,5.078125,5.25,173600,5.25,5.078125,3.989612340927124
23-11-1993,5.078125,5.109375,697600,5.21875,5.09375,4.00188684463501
24-11-1993,5.109375,5.109375,556800,5.15625,5.15625,4.050990104675293
26-11-1993,5.03125,5.125,94400,5.125,5.03125,3.9527835845947266
29-11-1993,4.828125,4.96875,1270400,4.96875,4.828125,3.7931971549987793
30-11-1993,4.78125,4.84375,457600,4.859375,4.828125,3.7931971549987793
01-12-1993,4.828125,4.859375,316000,4.921875,4.859375,3.8177497386932373
02-12-1993,4.84375,4.84375,429600,4.90625,4.859375,3.8177497386932373
03-12-1993,4.875,4.875,142400,4.90625,4.875,3.830024003982544
06-12-1993,4.84375,4.875,308800,4.90625,4.890625,3.8423006534576416
07-12-1993,4.859375,4.875,528800,4.953125,4.90625,3.85457706451416
08-12-1993,4.84375,4.890625,89600,4.890625,4.859375,3.8177497386932373
09-12-1993,4.71875,4.859375,69600,4.859375,4.78125,3.7563726902008057
10-12-1993,4.796875,4.796875,271200,4.84375,4.828125,3.7931971549987793
13-12-1993,4.71875,4.859375,102400,4.859375,4.765625,3.7440967559814453
14-12-1993,4.734375,4.796875,620800,4.8125,4.8125,3.7809231281280518
15-12-1993,4.71875,4.765625,128000,4.765625,4.734375,3.719543933868408
16-12-1993,4.75,4.75,565600,4.84375,4.78125,3.7563726902008057
17-12-1993,4.734375,4.796875,200800,4.8125,4.75,3.7318201065063477
20-12-1993,4.40625,4.71875,927200,4.71875,4.515625,3.5476834774017334
21-12-1993,4.265625,4.546875,880000,4.546875,4.4375,3.4863030910491943
22-12-1993,4.40625,4.453125,676000,4.75,4.734375,3.719543933868408
23-12-1993,4.703125,4.703125,176000,4.796875,4.75,3.7318201065063477
27-12-1993,4.6875,4.6875,1060000,4.890625,4.859375,3.8177497386932373
28-12-1993,4.8125,4.890625,629600,4.921875,4.8125,3.7809231281280518
29-12-1993,4.828125,4.828125,648000,4.890625,4.859375,3.8177497386932373
30-12-1993,4.828125,4.84375,270400,4.859375,4.859375,3.8177497386932373
31-12-1993,4.828125,4.859375,112800,4.875,4.875,3.830024003982544
03-01-1994,4.828125,4.875,332000,4.875,4.875,3.830024003982544
04-01-1994,4.84375,4.84375,202400,4.890625,4.890625,3.8423006534576416
05-01-1994,4.96875,4.96875,800000,5.25,5.203125,4.087818145751953
06-01-1994,5.234375,5.234375,999200,5.484375,5.453125,4.284228324890137
07-01-1994,5.40625,5.46875,704800,5.46875,5.4375,4.271953105926514
10-01-1994,5.421875,5.421875,573600,5.640625,5.640625,4.437660217285156
11-01-1994,5.453125,5.59375,1028800,5.59375,5.5,4.327021598815918
12-01-1994,5.390625,5.5,296000,5.53125,5.40625,4.253269195556641
13-01-1994,5.3125,5.40625,10779200,5.421875,5.3125,4.179510116577148
14-01-1994,5.15625,5.28125,1295200,5.328125,5.15625,4.05658483505249
17-01-1994,5.21875,5.25,1098400,5.3125,5.296875,4.167220592498779
18-01-1994,5.3125,5.3125,851200,5.4375,5.4375,4.277853488922119
19-01-1994,5.46875,5.46875,1249600,5.609375,5.515625,4.3393144607543945
20-01-1994,5.359375,5.515625,487200,5.5625,5.359375,4.216390609741211
21-01-1994,5.34375,5.390625,354400,5.421875,5.375,4.228682518005371
24-01-1994,5.3125,5.390625,408800,5.40625,5.3125,4.179510116577148
25-01-1994,5.296875,5.3125,284000,5.328125,5.3125,4.179510116577148
26-01-1994,5.265625,5.3125,873600,5.40625,5.375,4.228682518005371
27-01-1994,5.375,5.375,1322400,5.5625,5.546875,4.363901138305664
28-01-1994,5.484375,5.5,303200,5.515625,5.5,4.327021598815918
31-01-1994,5.515625,5.53125,787200,5.671875,5.515625,4.3393144607543945
01-02-1994,5.546875,5.546875,700800,5.625,5.609375,4.413071155548096
02-02-1994,5.578125,5.578125,999200,5.9375,5.765625,4.5359978675842285
03-02-1994,5.734375,5.8125,155200,5.8125,5.75,4.523706436157227
04-02-1994,5.703125,5.78125,1171200,5.828125,5.71875,4.49912166595459
07-02-1994,5.609375,5.671875,363200,5.671875,5.625,4.425365447998047
08-02-1994,5.59375,5.625,355200,5.75,5.734375,4.511415958404541
09-02-1994,5.59375,5.734375,272800,5.734375,5.65625,4.449948310852051
10-02-1994,5.5,5.65625,944800,5.65625,5.5,4.327021598815918
11-02-1994,5.5,5.53125,212800,5.71875,5.6875,4.474536895751953
14-02-1994,5.40625,5.6875,335200,5.6875,5.5,4.327021598815918
15-02-1994,5.46875,5.46875,137600,5.53125,5.5,4.327021598815918
16-02-1994,5.375,5.46875,541600,5.484375,5.375,4.228682518005371
17-02-1994,5.34375,5.390625,538400,5.46875,5.34375,4.204097747802734
18-02-1994,5.328125,5.375,437600,5.390625,5.34375,4.204097747802734
22-02-1994,5.359375,5.375,83200,5.40625,5.375,4.228682518005371
23-02-1994,5.34375,5.34375,152000,5.4375,5.421875,4.265559673309326
24-02-1994,5.375,5.421875,108800,5.4375,5.4375,4.277853488922119
25-02-1994,5.46875,5.5,848800,5.5625,5.46875,4.302436351776123
28-02-1994,5.375,5.46875,57600,5.46875,5.375,4.228682518005371
01-03-1994,5.34375,5.40625,180000,5.40625,5.375,4.228682518005371
02-03-1994,5.28125,5.34375,310400,5.34375,5.3125,4.179510116577148
03-03-1994,5.296875,5.328125,92800,5.34375,5.3125,4.179510116577148
04-03-1994,5.296875,5.296875,196800,5.40625,5.390625,4.240973949432373
07-03-1994,5.34375,5.40625,268800,5.40625,5.34375,4.204097747802734
08-03-1994,5.234375,5.3125,516800,5.328125,5.234375,4.118049621582031
09-03-1994,4.96875,5.203125,609600,5.203125,5.03125,3.958242416381836
10-03-1994,4.921875,5.015625,894400,5.046875,4.9375,3.8844873905181885
11-03-1994,4.921875,4.953125,410400,5.03125,5.015625,3.9459497928619385
14-03-1994,5.015625,5.015625,308800,5.1875,5.171875,4.068875312805176
15-03-1994,5.21875,5.21875,446400,5.328125,5.28125,4.154925346374512
16-03-1994,5.25,5.265625,458400,5.296875,5.28125,4.154925346374512
17-03-1994,5.265625,5.265625,423200,5.515625,5.484375,4.314731597900391
18-03-1994,5.5,5.53125,879200,5.6875,5.6875,4.474536895751953
21-03-1994,5.671875,5.71875,813600,5.734375,5.71875,4.49912166595459
22-03-1994,5.6875,5.6875,1078400,5.8125,5.796875,4.560583114624023
23-03-1994,5.625,5.6875,722400,5.6875,5.671875,4.4622416496276855
24-03-1994,5.5625,5.59375,674400,5.65625,5.625,4.425365447998047
25-03-1994,5.609375,5.609375,510400,5.671875,5.625,4.425365447998047
28-03-1994,5.4375,5.609375,1590400,5.609375,5.4375,4.277853488922119
29-03-1994,5.25,5.421875,617600,5.421875,5.25,4.130339622497559
30-03-1994,5.109375,5.234375,567200,5.328125,5.3125,4.179510116577148
31-03-1994,5.265625,5.3125,148800,5.34375,5.34375,4.204097747802734
04-04-1994,5.25,5.3125,445600,5.3125,5.265625,4.142633438110352
05-04-1994,5.234375,5.28125,940000,5.328125,5.25,4.130339622497559
06-04-1994,5.21875,5.3125,240000,5.375,5.375,4.228682518005371
07-04-1994,5.34375,5.375,574400,5.4375,5.34375,4.204097747802734
08-04-1994,5.3125,5.328125,169600,5.34375,5.34375,4.204097747802734
11-04-1994,5.265625,5.3125,698400,5.3125,5.296875,4.173076152801514
12-04-1994,5.3125,5.3125,1101600,5.40625,5.375,4.234626770019531
13-04-1994,5.359375,5.375,604000,5.4375,5.4375,4.283864974975586
14-04-1994,5.359375,5.390625,1280800,5.53125,5.53125,4.357724189758301
15-04-1994,5.46875,5.53125,826400,5.875,5.875,4.62854528427124
18-04-1994,5.6875,5.8125,1331200,5.8125,5.796875,4.566993713378906
19-04-1994,5.734375,5.78125,704000,5.8125,5.734375,4.517754077911377
20-04-1994,5.703125,5.71875,727200,5.71875,5.71875,4.505443572998047
21-04-1994,5.703125,5.703125,480000,5.765625,5.75,4.530063629150391
22-04-1994,5.71875,5.734375,332000,5.796875,5.765625,4.542374134063721
25-04-1994,5.734375,5.765625,498400,5.9375,5.9375,4.677783012390137
26-04-1994,5.9375,5.9375,1096000,5.96875,5.96875,4.70240592956543
28-04-1994,5.9375,5.953125,856800,6.015625,5.953125,4.690093517303467
29-04-1994,5.890625,5.9375,535200,5.9375,5.9375,4.677783012390137
02-05-1994,5.890625,5.90625,652000,5.953125,5.953125,4.690093517303467
03-05-1994,5.859375,5.9375,560800,5.9375,5.875,4.62854528427124
04-05-1994,5.875,5.875,358400,5.9375,5.9375,4.677783012390137
05-05-1994,5.921875,5.96875,66400,5.96875,5.921875,4.6654744148254395
06-05-1994,5.921875,5.921875,343200,6.125,6.09375,4.800885200500488
09-05-1994,6.03125,6.109375,453600,6.109375,6.078125,4.788572311401367
10-05-1994,6.09375,6.140625,632800,6.140625,6.09375,4.800885200500488
11-05-1994,6.03125,6.09375,187200,6.109375,6.03125,4.751642227172852
12-05-1994,6.03125,6.046875,806400,6.15625,6.140625,4.837813377380371
13-05-1994,6.109375,6.109375,257600,6.125,6.125,4.825504302978516
16-05-1994,6.109375,6.140625,293600,6.140625,6.109375,4.8131937980651855
17-05-1994,5.890625,6.09375,1044000,6.09375,5.953125,4.690093517303467
18-05-1994,5.90625,5.96875,1417600,5.984375,5.96875,4.70240592956543
19-05-1994,5.890625,5.984375,205600,5.984375,5.890625,4.640854358673096
20-05-1994,5.8125,5.90625,309600,5.90625,5.828125,4.591614723205566
23-05-1994,5.765625,5.796875,208800,5.8125,5.765625,4.542374134063721
24-05-1994,5.703125,5.75,287200,5.75,5.703125,4.493133068084717
25-05-1994,5.65625,5.71875,179200,5.71875,5.65625,4.456204414367676
26-05-1994,5.515625,5.59375,840800,5.625,5.546875,4.370036602020264
27-05-1994,5.53125,5.5625,70400,5.59375,5.578125,4.3946533203125
31-05-1994,5.5,5.546875,752800,5.578125,5.5,4.333105087280273
01-06-1994,5.5,5.5,480800,5.546875,5.515625,4.345412731170654
02-06-1994,5.46875,5.5,600000,5.53125,5.46875,4.308484077453613
03-06-1994,5.34375,5.453125,136800,5.453125,5.421875,4.271556377410889
06-06-1994,5.453125,5.5,132800,5.5,5.46875,4.308484077453613
07-06-1994,5.46875,5.46875,863200,5.578125,5.5625,4.382344722747803
08-06-1994,5.4375,5.5625,276800,5.5625,5.46875,4.308484077453613
09-06-1994,5.375,5.4375,304800,5.4375,5.375,4.234626770019531
10-06-1994,5.375,5.375,165600,5.578125,5.578125,4.3946533203125
13-06-1994,5.578125,5.578125,736800,5.703125,5.6875,4.480823516845703
14-06-1994,5.703125,5.703125,476000,5.75,5.75,4.530063629150391
15-06-1994,5.71875,5.75,292000,5.78125,5.734375,4.517754077911377
16-06-1994,5.71875,5.71875,132000,5.78125,5.78125,4.554684638977051
17-06-1994,5.75,5.75,384000,5.90625,5.90625,4.653164386749268
20-06-1994,5.75,5.9375,174800,5.9375,5.84375,4.60392427444458
21-06-1994,5.78125,5.78125,166400,5.90625,5.90625,4.653164386749268
22-06-1994,5.875,5.96875,52800,5.96875,5.90625,4.653164386749268
23-06-1994,5.75,5.96875,197200,5.96875,5.75,4.530063629150391
24-06-1994,5.59375,5.75,143200,5.75,5.71875,4.505443572998047
27-06-1994,5.625,5.6875,136800,5.75,5.71875,4.505443572998047
28-06-1994,5.59375,5.65625,190800,5.71875,5.71875,4.505443572998047
29-06-1994,5.65625,5.71875,94800,5.75,5.75,4.530063629150391
30-06-1994,5.59375,5.6875,440400,5.75,5.75,4.530063629150391
01-07-1994,5.625,5.75,150400,5.75,5.65625,4.456204414367676
05-07-1994,5.5,5.6875,72400,5.6875,5.5,4.333105087280273
06-07-1994,5.46875,5.5,182800,5.6875,5.6875,4.480823516845703
07-07-1994,5.59375,5.71875,36000,5.71875,5.59375,4.406964302062988
08-07-1994,5.5,5.5625,24000,5.59375,5.5,4.333105087280273
11-07-1994,5.5,5.53125,51600,5.5625,5.5625,4.388329029083252
12-07-1994,5.5,5.5625,98800,5.59375,5.5625,4.388329029083252
13-07-1994,5.40625,5.59375,277200,5.65625,5.5,4.339022159576416
14-07-1994,5.4375,5.53125,72800,5.53125,5.4375,4.289714813232422
15-07-1994,5.34375,5.40625,68800,5.40625,5.375,4.2404093742370605
18-07-1994,5.3125,5.4375,261600,5.46875,5.46875,4.314367294311523
19-07-1994,5.375,5.4375,143200,5.4375,5.375,4.2404093742370605
20-07-1994,5.3125,5.40625,31600,5.40625,5.3125,4.191099166870117
21-07-1994,5.1875,5.1875,230800,5.34375,5.34375,4.215752601623535
22-07-1994,5.1875,5.3125,37600,5.3125,5.21875,4.11713981628418
25-07-1994,5.03125,5.25,187200,5.25,5.03125,3.9692187309265137
26-07-1994,4.9375,5.0625,230000,5.0625,4.96875,3.9199113845825195
27-07-1994,4.90625,5.0,551200,5.03125,4.9375,3.895258665084839
28-07-1994,4.9375,4.9375,342800,5.0,5.0,3.944565534591675
29-07-1994,4.96875,5.0,209600,5.0,4.96875,3.9199113845825195
01-08-1994,4.9375,4.9375,620000,5.0,5.0,3.944565534591675
02-08-1994,4.9375,4.96875,216400,5.0,5.0,3.944565534591675
03-08-1994,4.90625,4.96875,430800,5.03125,5.0,3.944565534591675
04-08-1994,4.9375,4.96875,156400,5.0625,5.0,3.944565534591675
05-08-1994,4.78125,4.96875,233200,5.0,4.78125,3.7719900608062744
08-08-1994,4.8125,4.84375,731600,4.90625,4.84375,3.821298122406006
09-08-1994,4.78125,4.8125,1479200,5.0,5.0,3.944565534591675
10-08-1994,5.03125,5.0625,600000,5.125,5.0625,3.9938724040985107
11-08-1994,4.96875,5.03125,326800,5.09375,4.96875,3.9199113845825195
12-08-1994,4.9375,4.96875,558400,5.03125,5.0,3.944565534591675
15-08-1994,4.96875,5.0,71600,5.0625,4.96875,3.9199113845825195
16-08-1994,4.9375,5.0,300800,5.0,4.9375,3.895258665084839
17-08-1994,4.90625,4.9375,148800,5.0,4.96875,3.9199113845825195
18-08-1994,4.90625,4.96875,228400,4.96875,4.9375,3.895258665084839
19-08-1994,4.90625,4.9375,330400,4.953125,4.90625,3.8706068992614746
22-08-1994,4.8125,4.9375,137200,4.9375,4.8125,3.7966463565826416
23-08-1994,4.78125,4.875,459200,4.90625,4.84375,3.821298122406006
24-08-1994,4.875,4.875,956000,5.03125,4.9375,3.895258665084839
25-08-1994,4.75,4.96875,773200,4.96875,4.78125,3.7719900608062744
26-08-1994,4.65625,4.8125,1071600,4.875,4.8125,3.7966463565826416
29-08-1994,4.625,4.875,1677600,4.875,4.71875,3.722683906555176
30-08-1994,4.6875,4.71875,976800,4.8125,4.8125,3.7966463565826416
31-08-1994,4.75,4.8125,1103600,4.90625,4.8125,3.7966463565826416
01-09-1994,4.78125,4.78125,967600,4.875,4.84375,3.821298122406006
02-09-1994,4.84375,4.90625,250400,4.9375,4.9375,3.895258665084839
06-09-1994,4.875,4.90625,397200,5.03125,5.03125,3.9692187309265137
07-09-1994,5.0625,5.0625,1347600,5.25,5.1875,4.092486381530762
08-09-1994,5.125,5.125,1925200,5.4375,5.4375,4.289714813232422
09-09-1994,5.125,5.375,1384800,5.375,5.125,4.043182373046875
12-09-1994,5.125,5.1875,572800,5.21875,5.125,4.043182373046875
13-09-1994,5.125,5.15625,136400,5.1875,5.15625,4.067831993103027
14-09-1994,5.125,5.125,378800,5.25,5.25,4.141793251037598
15-09-1994,5.21875,5.25,1040800,5.3125,5.25,4.141793251037598
16-09-1994,5.25,5.28125,429600,5.375,5.375,4.2404093742370605
19-09-1994,5.25,5.375,374400,5.375,5.25,4.141793251037598
20-09-1994,5.0,5.1875,248400,5.1875,5.125,4.043182373046875
21-09-1994,4.9375,5.125,303200,5.125,5.0,3.944565534591675
22-09-1994,5.0,5.0625,68000,5.0625,5.0,3.944565534591675
23-09-1994,5.0625,5.0625,456000,5.21875,5.1875,4.092486381530762
26-09-1994,5.15625,5.15625,168800,5.25,5.25,4.141793251037598
27-09-1994,5.15625,5.21875,271200,5.21875,5.1875,4.092486381530762
28-09-1994,5.15625,5.1875,45600,5.21875,5.15625,4.067831993103027
29-09-1994,5.125,5.1875,135200,5.1875,5.15625,4.067831993103027
30-09-1994,5.0625,5.1875,63600,5.1875,5.09375,4.018525123596191
03-10-1994,5.0625,5.09375,100000,5.125,5.0625,3.9938724040985107
04-10-1994,4.96875,5.09375,256800,5.09375,4.96875,3.9199113845825195
05-10-1994,4.96875,4.96875,100400,5.03125,5.03125,3.9692187309265137
06-10-1994,5.03125,5.0625,187200,5.125,5.0625,3.9938724040985107
07-10-1994,5.09375,5.09375,220000,5.3125,5.28125,4.172628879547119
10-10-1994,5.28125,5.28125,344000,5.375,5.3125,4.197318077087402
11-10-1994,5.3125,5.3125,328800,5.375,5.3125,4.197318077087402
12-10-1994,5.15625,5.25,155600,5.25,5.15625,4.073866844177246
13-10-1994,5.1875,5.21875,285600,5.28125,5.25,4.147939205169678
14-10-1994,5.1875,5.25,151200,5.25,5.25,4.147939205169678
17-10-1994,5.25,5.3125,88000,5.3125,5.25,4.147939205169678
18-10-1994,5.25,5.25,153200,5.375,5.375,4.246702194213867
19-10-1994,5.34375,5.34375,236000,5.4375,5.34375,4.222008228302002
20-10-1994,5.21875,5.3125,174000,5.34375,5.25,4.147939205169678
21-10-1994,5.1875,5.1875,66800,5.25,5.21875,4.1232476234436035
24-10-1994,5.1875,5.25,72800,5.34375,5.3125,4.197318077087402
25-10-1994,5.1875,5.3125,243200,5.34375,5.25,4.147939205169678
26-10-1994,5.21875,5.25,512800,5.40625,5.40625,4.271389484405518
27-10-1994,5.375,5.375,1548800,5.625,5.53125,4.370148658752441
28-10-1994,5.46875,5.5,638000,5.6875,5.65625,4.468908309936523
31-10-1994,5.5,5.625,102000,5.625,5.53125,4.370148658752441
01-11-1994,5.46875,5.53125,71200,5.5625,5.5625,4.394840240478516
02-11-1994,5.4375,5.53125,349600,5.53125,5.46875,4.3207688331604
03-11-1994,5.46875,5.5,54000,5.5625,5.53125,4.370148658752441
04-11-1994,5.46875,5.46875,237600,5.53125,5.46875,4.3207688331604
07-11-1994,5.4375,5.5,145600,5.5,5.4375,4.296078681945801
08-11-1994,5.375,5.40625,126800,5.4375,5.40625,4.271389484405518
09-11-1994,5.4375,5.4375,328400,5.46875,5.4375,4.296078681945801
10-11-1994,5.4375,5.4375,60800,5.46875,5.4375,4.296078681945801
11-11-1994,5.34375,5.4375,80800,5.46875,5.34375,4.222008228302002
14-11-1994,5.21875,5.3125,125600,5.3125,5.25,4.147939205169678
15-11-1994,5.21875,5.25,166400,5.28125,5.28125,4.172628879547119
16-11-1994,5.15625,5.21875,154800,5.25,5.15625,4.073866844177246
17-11-1994,4.90625,5.09375,990400,5.09375,4.96875,3.9257283210754395
18-11-1994,4.625,4.90625,1564800,4.90625,4.78125,3.777587413787842
21-11-1994,4.71875,4.8125,789600,4.84375,4.75,3.752896785736084
22-11-1994,4.625,4.6875,559600,4.71875,4.6875,3.7035183906555176
23-11-1994,4.5,4.71875,952400,4.71875,4.59375,3.6294443607330322
25-11-1994,4.53125,4.5625,45600,4.59375,4.53125,3.5800654888153076
28-11-1994,4.46875,4.59375,1295600,4.59375,4.53125,3.5800654888153076
29-11-1994,4.46875,4.53125,1277200,4.625,4.59375,3.6294443607330322
30-11-1994,4.53125,4.625,410400,4.625,4.53125,3.5800654888153076
01-12-1994,4.5,4.53125,507600,4.65625,4.625,3.6541354656219482
02-12-1994,4.625,4.625,588000,4.6875,4.625,3.6541354656219482
05-12-1994,4.375,4.59375,1013600,4.65625,4.375,3.456615686416626
06-12-1994,4.375,4.375,664400,4.4375,4.375,3.456615686416626
07-12-1994,4.34375,4.375,218400,4.5625,4.5625,3.604753255844116
08-12-1994,4.53125,4.53125,552800,4.8125,4.6875,3.7035183906555176
09-12-1994,4.5625,4.625,588400,4.625,4.59375,3.6294443607330322
12-12-1994,4.625,4.625,519200,4.6875,4.65625,3.6788275241851807
13-12-1994,4.65625,4.65625,408000,4.78125,4.75,3.752896785736084
14-12-1994,4.78125,4.78125,529200,4.96875,4.9375,3.901038646697998
15-12-1994,4.8125,4.96875,116000,4.96875,4.84375,3.8269689083099365
16-12-1994,4.8125,4.84375,312800,4.875,4.84375,3.8269689083099365
19-12-1994,4.75,4.84375,426800,4.84375,4.8125,3.802277088165283
20-12-1994,4.625,4.75,305200,4.8125,4.65625,3.6788275241851807
21-12-1994,4.59375,4.6875,634400,4.6875,4.625,3.6541354656219482
22-12-1994,4.53125,4.65625,284000,4.65625,4.53125,3.5800654888153076
23-12-1994,4.53125,4.5625,29600,4.59375,4.5625,3.604753255844116
27-12-1994,4.4375,4.59375,209600,4.59375,4.5,3.555375576019287
28-12-1994,4.5,4.5,228800,4.59375,4.59375,3.6294443607330322
29-12-1994,4.65625,4.65625,221200,4.8125,4.71875,3.728208065032959
30-12-1994,4.6875,4.71875,150400,4.78125,4.6875,3.7035183906555176
03-01-1995,4.65625,4.75,129600,4.78125,4.75,3.752896785736084
04-01-1995,4.6875,4.75,68400,4.8125,4.71875,3.728208065032959
05-01-1995,4.59375,4.65625,260000,4.6875,4.65625,3.6788275241851807
06-01-1995,4.5,4.6875,404800,4.6875,4.5625,3.604753255844116
09-01-1995,4.46875,4.53125,613600,4.5625,4.46875,3.5364983081817627
10-01-1995,4.3125,4.4375,289600,4.4375,4.3125,3.4128482341766357
11-01-1995,4.3125,4.3125,124800,4.40625,4.40625,3.4870364665985107
12-01-1995,4.3125,4.375,374400,4.4375,4.3125,3.4128482341766357
13-01-1995,4.28125,4.3125,66800,4.40625,4.375,3.4623069763183594
16-01-1995,4.28125,4.3125,480800,4.328125,4.3125,3.4128482341766357
17-01-1995,4.3125,4.3125,437600,4.4375,4.40625,3.4870364665985107
18-01-1995,4.40625,4.40625,606000,4.59375,4.5625,3.6106884479522705
19-01-1995,4.5,4.5625,248000,4.5625,4.5,3.561229705810547
20-01-1995,4.5,4.53125,76400,4.53125,4.53125,3.585960626602173
23-01-1995,4.375,4.46875,128800,4.5,4.375,3.4623069763183594
24-01-1995,4.375,4.375,345600,4.5625,4.53125,3.585960626602173
25-01-1995,4.46875,4.53125,129600,4.53125,4.5,3.561229705810547
26-01-1995,4.5,4.5,145200,4.625,4.625,3.6601531505584717
27-01-1995,4.5,4.5625,512000,4.59375,4.53125,3.585960626602173
30-01-1995,4.4375,4.53125,193200,4.53125,4.46875,3.5364983081817627
31-01-1995,4.4375,4.4375,186400,4.53125,4.4375,3.511770009994507
01-02-1995,4.4375,4.4375,46000,4.5,4.46875,3.5364983081817627
02-02-1995,4.4375,4.46875,41600,4.5,4.46875,3.5364983081817627
03-02-1995,4.4375,4.5,243600,4.53125,4.5,3.561229705810547
06-02-1995,4.5625,4.625,651200,4.8125,4.75,3.75907564163208
07-02-1995,4.6875,4.8125,437200,4.8125,4.6875,3.709616184234619
08-02-1995,4.71875,4.71875,549600,4.8125,4.75,3.75907564163208
09-02-1995,4.6875,4.78125,278800,4.78125,4.6875,3.709616184234619
10-02-1995,4.6875,4.71875,243600,4.78125,4.78125,3.7838070392608643
13-02-1995,4.8125,4.8125,264800,4.90625,4.84375,3.8332700729370117
14-02-1995,4.75,4.84375,137600,4.84375,4.84375,3.8332700729370117
15-02-1995,4.8125,4.84375,277200,4.96875,4.9375,3.907461404800415
16-02-1995,4.9375,4.9375,477600,5.03125,5.0,3.9569218158721924
17-02-1995,5.0,5.0,261200,5.125,5.125,4.055846691131592
21-02-1995,5.09375,5.125,92400,5.125,5.125,4.055846691131592
22-02-1995,5.0625,5.09375,214400,5.125,5.09375,4.031114101409912
23-02-1995,5.0625,5.125,348800,5.15625,5.15625,4.080575466156006
24-02-1995,5.09375,5.15625,281200,5.15625,5.125,4.055846691131592
27-02-1995,5.09375,5.125,381600,5.15625,5.15625,4.080575466156006
28-02-1995,5.15625,5.1875,322400,5.21875,5.21875,4.130037307739258
01-03-1995,5.15625,5.1875,70800,5.1875,5.15625,4.080575466156006
02-03-1995,5.15625,5.15625,218800,5.25,5.25,4.154769420623779
03-03-1995,5.21875,5.25,259600,5.28125,5.25,4.154769420623779
06-03-1995,5.15625,5.25,236400,5.25,5.21875,4.130037307739258
07-03-1995,5.125,5.25,405200,5.25,5.125,4.055846691131592
08-03-1995,5.125,5.15625,442800,5.28125,5.21875,4.130037307739258
09-03-1995,5.1875,5.25,179600,5.28125,5.28125,4.179500579833984
10-03-1995,5.15625,5.25,170400,5.25,5.15625,4.080575466156006
13-03-1995,5.15625,5.1875,100800,5.21875,5.1875,4.105307102203369
14-03-1995,5.1875,5.1875,101600,5.25,5.25,4.154769420623779
15-03-1995,5.25,5.25,317200,5.34375,5.3125,4.204229831695557
16-03-1995,5.28125,5.28125,635600,5.5,5.4375,4.3031535148620605
17-03-1995,5.3125,5.40625,492800,5.5,5.4375,4.3031535148620605
20-03-1995,5.28125,5.40625,426800,5.5,5.34375,4.228960037231445
21-03-1995,5.25,5.3125,159600,5.3125,5.25,4.154769420623779
22-03-1995,5.28125,5.3125,349200,5.375,5.3125,4.204229831695557
23-03-1995,5.3125,5.34375,279600,5.4375,5.40625,4.278421878814697
24-03-1995,5.28125,5.40625,696000,5.40625,5.3125,4.204229831695557
27-03-1995,5.3125,5.34375,314400,5.5,5.5,4.3526153564453125
28-03-1995,5.5,5.5,268800,5.5625,5.5625,4.402077674865723
29-03-1995,5.5625,5.5625,458000,5.6875,5.625,4.451539516448975
30-03-1995,5.65625,5.65625,414400,5.875,5.875,4.6493821144104
31-03-1995,5.90625,5.90625,1336800,6.21875,6.15625,4.8719611167907715
03-04-1995,5.96875,6.15625,1253600,6.15625,5.96875,4.723574638366699
04-04-1995,5.84375,5.96875,666000,5.96875,5.875,4.6493821144104
05-04-1995,5.84375,5.875,1044800,5.96875,5.90625,4.674115180969238
06-04-1995,5.71875,5.875,704000,5.875,5.71875,4.525731086730957
07-04-1995,5.625,5.6875,227600,5.75,5.625,4.457383155822754
10-04-1995,5.59375,5.59375,525600,5.75,5.75,4.556437015533447
11-04-1995,5.6875,5.78125,668400,5.78125,5.75,4.556437015533447
12-04-1995,5.71875,5.75,110400,5.78125,5.78125,4.5811991691589355
13-04-1995,5.75,5.8125,191600,5.875,5.75,4.556437015533447
17-04-1995,5.75,5.78125,133200,5.8125,5.75,4.556437015533447
18-04-1995,5.5625,5.75,805200,5.75,5.5625,4.407857894897461
19-04-1995,5.53125,5.59375,182400,5.625,5.625,4.457383155822754
20-04-1995,5.625,5.625,356000,5.78125,5.78125,4.5811991691589355
21-04-1995,5.8125,5.8125,1894000,6.1875,6.09375,4.828831672668457
24-04-1995,5.9375,6.125,940800,6.1875,5.9375,4.705015659332275
25-04-1995,5.84375,5.875,103200,5.90625,5.84375,4.630725383758545
26-04-1995,5.71875,5.875,144000,5.875,5.78125,4.5811991691589355
27-04-1995,5.65625,5.78125,390800,5.78125,5.65625,4.4821457862854
28-04-1995,5.6875,5.71875,266400,5.71875,5.71875,4.531673908233643
01-05-1995,5.71875,5.75,529200,5.78125,5.75,4.556437015533447
02-05-1995,5.6875,5.75,406400,5.75,5.75,4.556437015533447
03-05-1995,5.75,5.75,199600,5.8125,5.75,4.556437015533447
04-05-1995,5.6875,5.75,215200,5.75,5.71875,4.531673908233643
05-05-1995,5.65625,5.6875,289200,5.75,5.65625,4.4821457862854
08-05-1995,5.625,5.65625,224000,5.6875,5.65625,4.4821457862854
09-05-1995,5.625,5.65625,509200,5.8125,5.8125,4.605961799621582
10-05-1995,5.78125,5.78125,706400,5.9375,5.9375,4.705015659332275
11-05-1995,5.78125,5.90625,222000,5.90625,5.8125,4.605961799621582
12-05-1995,5.75,5.8125,38800,5.8125,5.78125,4.5811991691589355
15-05-1995,5.78125,5.8125,279600,5.875,5.875,4.655489921569824
16-05-1995,5.84375,5.90625,43200,5.9375,5.84375,4.630725383758545
17-05-1995,5.78125,5.84375,295600,5.84375,5.8125,4.605961799621582
18-05-1995,5.65625,5.8125,107600,5.8125,5.71875,4.531673908233643
19-05-1995,5.71875,5.71875,130800,5.75,5.75,4.556437015533447
22-05-1995,5.6875,5.75,64000,5.75,5.6875,4.506908416748047
23-05-1995,5.71875,5.71875,340800,5.90625,5.875,4.655489921569824
24-05-1995,5.84375,5.875,449200,6.09375,6.09375,4.828831672668457
25-05-1995,6.0,6.03125,798400,6.125,6.0625,4.804068088531494
26-05-1995,5.9375,6.0625,177600,6.0625,5.96875,4.729779243469238
30-05-1995,5.9375,5.9375,303600,6.03125,6.03125,4.779307842254639
31-05-1995,6.0,6.0625,254800,6.0625,6.0625,4.804068088531494
01-06-1995,6.03125,6.0625,26000,6.09375,6.03125,4.779307842254639
02-06-1995,5.9375,6.0625,201600,6.09375,5.96875,4.729779243469238
05-06-1995,5.96875,6.0,137600,6.0,6.0,4.754539966583252
06-06-1995,5.875,6.0,53200,6.0,5.90625,4.6802520751953125
07-06-1995,5.8125,5.9375,307600,5.9375,5.8125,4.605961799621582
08-06-1995,5.75,5.8125,242000,5.8125,5.78125,4.5811991691589355
09-06-1995,5.75,5.78125,652000,5.8125,5.78125,4.5811991691589355
12-06-1995,5.71875,5.78125,188000,5.78125,5.75,4.556437015533447
13-06-1995,5.6875,5.6875,119200,5.71875,5.71875,4.531673908233643
14-06-1995,5.71875,5.78125,300400,5.78125,5.78125,4.5811991691589355
15-06-1995,5.71875,5.75,186800,5.8125,5.8125,4.605961799621582
16-06-1995,5.6875,5.8125,190000,5.8125,5.6875,4.506908416748047
19-06-1995,5.59375,5.65625,399600,5.71875,5.6875,4.506908416748047
20-06-1995,5.34375,5.71875,788000,5.71875,5.34375,4.2345123291015625
21-06-1995,5.1875,5.34375,494400,5.34375,5.21875,4.135461330413818
22-06-1995,5.0625,5.21875,762800,5.21875,5.15625,4.085934162139893
23-06-1995,5.1875,5.1875,2558400,5.34375,5.3125,4.209750652313232
26-06-1995,5.25,5.28125,352400,5.375,5.34375,4.2345123291015625
27-06-1995,5.3125,5.3125,496800,5.4375,5.40625,4.284039497375488
28-06-1995,5.21875,5.375,1011200,5.375,5.25,4.1602277755737305
29-06-1995,5.1875,5.25,250400,5.25,5.1875,4.110695838928223
30-06-1995,5.21875,5.21875,653600,5.4375,5.4375,4.308805465698242
03-07-1995,5.34375,5.40625,317600,5.46875,5.46875,4.3335652351379395
05-07-1995,5.28125,5.4375,124000,5.4375,5.28125,4.184988021850586
06-07-1995,5.21875,5.25,680800,5.28125,5.25,4.1602277755737305
07-07-1995,5.21875,5.25,272400,5.25,5.25,4.1602277755737305
10-07-1995,5.125,5.28125,638400,5.3125,5.125,4.0611748695373535
11-07-1995,5.0,5.125,582000,5.28125,5.15625,4.085934162139893
12-07-1995,5.1875,5.1875,335600,5.28125,5.25,4.166285991668701
13-07-1995,5.21875,5.375,817600,5.4375,5.21875,4.141483783721924
14-07-1995,5.15625,5.25,286000,5.28125,5.1875,4.116684913635254
17-07-1995,5.15625,5.1875,460400,5.25,5.21875,4.141483783721924
18-07-1995,5.21875,5.21875,77600,5.28125,5.28125,4.19108247756958
19-07-1995,5.1875,5.25,132000,5.28125,5.25,4.166285991668701
20-07-1995,5.25,5.25,379200,5.375,5.28125,4.19108247756958
21-07-1995,5.21875,5.28125,248000,5.375,5.34375,4.2406816482543945
24-07-1995,5.3125,5.3125,176400,5.40625,5.375,4.265482425689697
25-07-1995,5.40625,5.40625,344000,5.46875,5.4375,4.315079689025879
26-07-1995,5.34375,5.40625,244000,5.40625,5.34375,4.2406816482543945
27-07-1995,5.21875,5.28125,758000,5.375,5.28125,4.19108247756958
28-07-1995,5.25,5.3125,111600,5.375,5.375,4.265482425689697
31-07-1995,5.34375,5.34375,217200,5.4375,5.40625,4.290281295776367
01-08-1995,5.1875,5.375,532800,5.375,5.21875,4.141483783721924
02-08-1995,5.1875,5.21875,302000,5.25,5.21875,4.141483783721924
03-08-1995,5.125,5.1875,552400,5.34375,5.34375,4.2406816482543945
04-08-1995,5.28125,5.34375,558800,5.34375,5.34375,4.2406816482543945
07-08-1995,5.34375,5.375,101600,5.40625,5.375,4.265482425689697
08-08-1995,5.34375,5.40625,305200,5.4375,5.34375,4.2406816482543945
09-08-1995,5.3125,5.40625,703200,5.40625,5.3125,4.215882778167725
10-08-1995,5.1875,5.3125,166000,5.34375,5.1875,4.116684913635254
11-08-1995,5.15625,5.15625,349600,5.3125,5.3125,4.215882778167725
14-08-1995,5.25,5.34375,134400,5.34375,5.25,4.166285991668701
15-08-1995,5.25,5.3125,108800,5.34375,5.25,4.166285991668701
16-08-1995,5.125,5.21875,242000,5.21875,5.21875,4.141483783721924
17-08-1995,5.1875,5.1875,371600,5.3125,5.28125,4.19108247756958
18-08-1995,5.28125,5.28125,542400,5.5,5.40625,4.290281295776367
21-08-1995,5.40625,5.46875,575600,5.5,5.40625,4.290281295776367
22-08-1995,5.4375,5.4375,362400,5.53125,5.53125,4.389475345611572
23-08-1995,5.5625,5.5625,317600,5.71875,5.625,4.463879108428955
24-08-1995,5.46875,5.59375,2007200,5.625,5.5,4.364679336547852
25-08-1995,5.5,5.5,160000,5.53125,5.5,4.364679336547852
28-08-1995,5.46875,5.5,280000,5.5625,5.53125,4.389475345611572
29-08-1995,5.5,5.53125,56400,5.5625,5.53125,4.389475345611572
30-08-1995,5.625,5.625,290400,5.65625,5.65625,4.488675117492676
31-08-1995,5.6875,5.6875,116800,5.84375,5.8125,4.612671375274658
01-09-1995,5.84375,5.84375,431200,5.96875,5.96875,4.736667633056641
05-09-1995,5.90625,5.96875,545200,6.03125,6.03125,4.786267280578613
06-09-1995,5.90625,5.96875,415600,6.0,6.0,4.761465549468994
07-09-1995,5.78125,6.0,284000,6.03125,6.03125,4.786267280578613
08-09-1995,5.9375,6.03125,248000,6.09375,5.9375,4.711869239807129
11-09-1995,5.9375,5.96875,230800,6.03125,6.03125,4.786267280578613
12-09-1995,5.90625,6.0,312400,6.15625,6.15625,4.8854660987854
13-09-1995,6.03125,6.125,547600,6.125,6.0625,4.811065196990967
14-09-1995,5.9375,6.03125,348000,6.09375,6.09375,4.835864543914795
15-09-1995,6.0625,6.0625,221200,6.1875,6.1875,4.910262107849121
18-09-1995,6.125,6.15625,490000,6.34375,6.21875,4.935061454772949
19-09-1995,6.0,6.15625,504800,6.1875,6.15625,4.8854660987854
20-09-1995,6.0,6.125,284800,6.125,6.0,4.761465549468994
21-09-1995,5.9375,6.0625,451200,6.0625,6.03125,4.786267280578613
22-09-1995,5.78125,6.03125,143600,6.03125,5.875,4.6622724533081055
25-09-1995,5.75,5.84375,183200,5.84375,5.78125,4.5878705978393555
26-09-1995,5.65625,5.78125,232000,5.78125,5.65625,4.488675117492676
27-09-1995,5.625,5.6875,229200,5.75,5.75,4.563073635101318
28-09-1995,5.625,5.8125,263600,5.96875,5.625,4.463879108428955
29-09-1995,5.4375,5.59375,635600,5.59375,5.4375,4.315079689025879
02-10-1995,5.4375,5.46875,548400,5.6875,5.59375,4.439077854156494
03-10-1995,5.5625,5.5625,304400,5.6875,5.65625,4.488675117492676
04-10-1995,5.5625,5.625,230800,5.65625,5.65625,4.488675117492676
05-10-1995,5.5,5.625,76800,5.625,5.53125,4.389475345611572
06-10-1995,5.5,5.5,259200,5.5625,5.5625,4.414279937744141
09-10-1995,5.5,5.59375,48000,5.59375,5.5,4.364679336547852
10-10-1995,5.375,5.46875,109600,5.46875,5.375,4.265482425689697
11-10-1995,5.34375,5.375,166000,5.40625,5.34375,4.2406816482543945
12-10-1995,5.34375,5.375,620000,5.5625,5.5,4.370813846588135
13-10-1995,5.5,5.5,227200,5.59375,5.53125,4.395644664764404
16-10-1995,5.40625,5.53125,188800,5.53125,5.46875,4.345977306365967
17-10-1995,5.40625,5.4375,398400,5.5,5.5,4.370813846588135
18-10-1995,5.25,5.4375,1966400,5.46875,5.25,4.1721415519714355
19-10-1995,5.21875,5.21875,1503600,5.3125,5.21875,4.147304534912109
20-10-1995,5.125,5.25,333600,5.25,5.125,4.0728044509887695
23-10-1995,5.0,5.15625,608000,5.15625,5.0,3.9734673500061035
24-10-1995,4.90625,5.0,1186800,5.0,4.9375,3.9237990379333496
25-10-1995,4.71875,4.9375,658400,4.9375,4.71875,3.749957799911499
26-10-1995,4.6875,4.75,439600,4.8125,4.71875,3.749957799911499
27-10-1995,4.71875,4.71875,352000,4.875,4.875,3.8741283416748047
30-10-1995,4.9375,4.9375,646800,5.0,4.96875,3.9486308097839355
31-10-1995,4.96875,5.0,314800,5.03125,5.0,3.9734673500061035
01-11-1995,5.0,5.0,390800,5.03125,5.0,3.9734673500061035
02-11-1995,4.9375,4.96875,42800,5.0,4.9375,3.9237990379333496
03-11-1995,4.875,4.875,165600,4.96875,4.96875,3.9486308097839355
06-11-1995,4.90625,4.96875,63600,4.96875,4.90625,3.8989644050598145
07-11-1995,4.9375,4.9375,476400,5.03125,5.03125,3.9982998371124268
08-11-1995,4.875,4.96875,907200,5.0,5.0,3.9734673500061035
09-11-1995,5.03125,5.09375,1176400,5.15625,5.03125,3.9982998371124268
10-11-1995,4.90625,5.03125,550000,5.03125,4.90625,3.8989644050598145
13-11-1995,4.9375,4.96875,446800,5.09375,5.09375,4.047969818115234
14-11-1995,4.9375,5.03125,1045600,5.0625,4.96875,3.9486308097839355
15-11-1995,4.96875,4.96875,228000,5.03125,5.0,3.9734673500061035
16-11-1995,5.03125,5.03125,1046400,5.4375,5.375,4.271477222442627
17-11-1995,5.375,5.40625,906800,5.40625,5.40625,4.296310901641846
20-11-1995,5.1875,5.40625,585600,5.40625,5.1875,4.122470855712891
21-11-1995,5.1875,5.21875,363200,5.375,5.34375,4.246641635894775
22-11-1995,5.34375,5.375,432800,5.40625,5.40625,4.296310901641846
24-11-1995,5.3125,5.40625,229200,5.40625,5.3125,4.221807956695557
27-11-1995,5.125,5.21875,851200,5.21875,5.1875,4.122470855712891
28-11-1995,5.1875,5.1875,315200,5.28125,5.25,4.1721415519714355
29-11-1995,5.21875,5.28125,28800,5.28125,5.21875,4.147304534912109
30-11-1995,5.1875,5.28125,311200,5.28125,5.25,4.1721415519714355
01-12-1995,5.25,5.25,308400,5.34375,5.28125,4.196972846984863
04-12-1995,5.125,5.3125,1056000,5.3125,5.3125,4.221807956695557
05-12-1995,5.3125,5.3125,461200,5.375,5.375,4.271477222442627
06-12-1995,5.40625,5.40625,685200,5.4375,5.4375,4.321144104003906
07-12-1995,5.4375,5.4375,720400,5.5,5.5,4.370813846588135
08-12-1995,5.4375,5.46875,18838800,5.65625,5.65625,4.494983673095703
11-12-1995,5.71875,5.8125,5631200,5.875,5.875,4.668825149536133
12-12-1995,5.8125,5.875,2874000,5.90625,5.875,4.668825149536133
13-12-1995,5.84375,5.875,3176800,6.09375,6.0,4.768157958984375
14-12-1995,5.90625,6.03125,2280000,6.09375,5.90625,4.693658828735352
15-12-1995,5.875,6.1875,1721200,6.21875,6.0,4.768157958984375
18-12-1995,5.8125,5.9375,974000,5.96875,5.96875,4.743325233459473
19-12-1995,5.875,5.96875,876000,6.0625,6.0625,4.817827224731445
20-12-1995,6.03125,6.0625,2001200,6.21875,6.03125,4.792994499206543
21-12-1995,6.0,6.03125,1896800,6.125,6.03125,4.792994499206543
22-12-1995,5.9375,6.09375,1115600,6.15625,6.03125,4.792994499206543
26-12-1995,6.03125,6.09375,490800,6.09375,6.03125,4.792994499206543
27-12-1995,5.9375,6.03125,582000,6.03125,5.9375,4.718491554260254
28-12-1995,5.90625,5.90625,1150800,6.15625,6.15625,4.892332553863525
29-12-1995,5.9375,6.1875,677200,6.1875,6.0,4.768157958984375
02-01-1996,6.03125,6.0625,579600,6.125,6.09375,4.8426618576049805
03-01-1996,5.875,6.125,1148000,6.125,5.96875,4.743325233459473
04-01-1996,5.9375,5.96875,1644000,6.0625,5.96875,4.743325233459473
05-01-1996,5.9375,5.9375,680800,6.09375,6.0625,4.817827224731445
08-01-1996,6.0625,6.0625,779200,6.125,6.125,4.867498397827148
09-01-1996,5.9375,6.15625,948400,6.15625,6.0,4.768157958984375
10-01-1996,5.84375,6.0,516400,6.03125,5.96875,4.743325233459473
11-01-1996,5.6875,5.8125,1618400,5.8125,5.78125,4.60010290145874
12-01-1996,5.75,5.75,555200,5.8125,5.8125,4.624967098236084
15-01-1996,5.75,5.875,1159200,5.875,5.75,4.575236797332764
16-01-1996,5.71875,5.75,1683200,5.8125,5.75,4.575236797332764
17-01-1996,5.59375,5.75,2281600,5.78125,5.75,4.575236797332764
18-01-1996,5.71875,5.75,504000,5.78125,5.78125,4.60010290145874
19-01-1996,5.75,5.8125,803200,5.84375,5.75,4.575236797332764
22-01-1996,5.78125,5.78125,545600,5.875,5.875,4.674697399139404
23-01-1996,5.78125,5.84375,426400,5.90625,5.78125,4.60010290145874
24-01-1996,5.78125,5.8125,539600,5.96875,5.875,4.674697399139404
25-01-1996,5.875,5.875,693600,5.96875,5.9375,4.724430084228516
26-01-1996,5.875,5.90625,1880000,5.90625,5.875,4.674697399139404
29-01-1996,5.875,5.90625,1636800,6.0,6.0,4.774158477783203
30-01-1996,5.96875,6.0,970800,6.03125,6.03125,4.79902458190918
31-01-1996,5.96875,6.03125,650000,6.125,6.09375,4.848755359649658
01-02-1996,6.125,6.125,2182400,6.3125,6.21875,4.948217391967773
02-02-1996,6.125,6.15625,1204000,6.25,6.15625,4.89848518371582
05-02-1996,6.0625,6.09375,923200,6.15625,6.09375,4.848755359649658
06-02-1996,6.03125,6.09375,938400,6.125,6.03125,4.79902458190918
07-02-1996,6.0625,6.09375,838800,6.15625,6.125,4.87362003326416
08-02-1996,6.125,6.125,705600,6.25,6.1875,4.923349857330322
09-02-1996,6.125,6.1875,1770400,6.28125,6.25,4.973081111907959
12-02-1996,6.15625,6.25,4923200,6.65625,6.53125,5.196869373321533
13-02-1996,6.25,6.59375,3442800,6.59375,6.34375,5.047677516937256
14-02-1996,6.375,6.375,1570000,6.625,6.5625,5.221735954284668
15-02-1996,6.53125,6.53125,1637600,6.9375,6.90625,5.4952569007873535
16-02-1996,6.65625,7.125,2182000,7.125,6.75,5.370930194854736
20-02-1996,6.5625,6.625,421200,6.71875,6.625,5.271470546722412
21-02-1996,6.53125,6.5625,1553600,6.71875,6.71875,5.346064567565918
22-02-1996,6.59375,6.6875,1300800,6.75,6.6875,5.321199893951416
23-02-1996,6.5625,6.65625,660000,6.75,6.71875,5.346064567565918
26-02-1996,6.5625,6.625,556400,6.65625,6.59375,5.2466020584106445
27-02-1996,6.5,6.53125,532800,6.625,6.59375,5.2466020584106445
28-02-1996,6.40625,6.59375,2225600,6.71875,6.40625,5.097408771514893
29-02-1996,6.1875,6.4375,956000,6.4375,6.25,4.973081111907959
01-03-1996,6.25,6.25,402800,6.34375,6.25,4.973081111907959
04-03-1996,6.1875,6.25,809200,6.34375,6.3125,5.022812843322754
05-03-1996,6.15625,6.25,574000,6.25,6.25,4.973081111907959
06-03-1996,6.1875,6.21875,830000,6.40625,6.40625,5.097408771514893
07-03-1996,6.3125,6.375,1132000,6.40625,6.375,5.072543621063232
08-03-1996,6.1875,6.1875,278400,6.28125,6.21875,4.948217391967773
11-03-1996,6.09375,6.1875,1366400,6.1875,6.15625,4.89848518371582
12-03-1996,6.09375,6.125,1108400,6.15625,6.125,4.87362003326416
13-03-1996,6.125,6.125,1038800,6.1875,6.1875,4.923349857330322
14-03-1996,6.25,6.25,2724800,6.40625,6.3125,5.022812843322754
15-03-1996,6.0,6.25,1051600,6.25,6.0625,4.8238911628723145
18-03-1996,6.0625,6.09375,4547200,6.375,6.375,5.072543621063232
19-03-1996,6.34375,6.375,473600,6.4375,6.34375,5.047677516937256
20-03-1996,6.1875,6.375,223600,6.375,6.1875,4.923349857330322
21-03-1996,6.125,6.1875,936800,6.28125,6.125,4.87362003326416
22-03-1996,6.09375,6.15625,1019600,6.1875,6.09375,4.848755359649658
25-03-1996,6.0625,6.0625,907200,6.28125,6.28125,4.997950077056885
26-03-1996,6.25,6.28125,216800,6.3125,6.3125,5.022812843322754
27-03-1996,6.40625,6.5,1842000,6.59375,6.53125,5.196869373321533
28-03-1996,6.53125,6.53125,1270000,6.65625,6.65625,5.296332836151123
29-03-1996,6.5625,6.59375,1343600,6.625,6.59375,5.2466020584106445
01-04-1996,6.5625,6.59375,752800,6.6875,6.6875,5.321199893951416
02-04-1996,6.65625,6.71875,1116400,6.875,6.84375,5.4455246925354
03-04-1996,6.71875,6.78125,1519600,6.96875,6.9375,5.520121097564697
04-04-1996,6.75,6.9375,796800,6.9375,6.875,5.470388889312744
08-04-1996,6.625,6.84375,1262800,6.84375,6.8125,5.420658111572266
09-04-1996,6.8125,6.8125,923200,6.90625,6.875,5.470388889312744
10-04-1996,6.78125,6.8125,1358000,6.96875,6.9375,5.520121097564697
11-04-1996,6.84375,6.875,932000,6.9375,6.875,5.476310729980469
12-04-1996,6.59375,6.875,1120000,6.875,6.65625,5.302064418792725
15-04-1996,6.5625,6.59375,948000,6.78125,6.75,5.376742362976074
16-04-1996,6.6875,6.78125,846000,6.78125,6.75,5.376742362976074
17-04-1996,6.65625,6.75,1494800,6.75,6.6875,5.326958179473877
18-04-1996,6.5,6.6875,1113200,6.6875,6.53125,5.202495098114014
19-04-1996,6.5,6.5,884400,6.6875,6.65625,5.302064418792725
22-04-1996,6.65625,6.65625,2457600,6.90625,6.8125,5.426526069641113
23-04-1996,6.78125,6.9375,1053200,7.0,6.90625,5.501204013824463
24-04-1996,6.90625,6.90625,1069200,7.15625,7.03125,5.600771903991699
25-04-1996,6.9375,6.96875,536800,7.0,6.9375,5.526092529296875
26-04-1996,6.78125,6.875,486400,6.9375,6.78125,5.4016337394714355
29-04-1996,6.71875,6.71875,705200,6.875,6.78125,5.4016337394714355
30-04-1996,6.59375,6.8125,779600,6.875,6.625,5.2771711349487305
01-05-1996,6.5,6.625,808400,6.75,6.5,5.177603244781494
02-05-1996,6.46875,6.5625,373600,6.59375,6.5625,5.227389812469482
03-05-1996,6.53125,6.625,680000,6.625,6.625,5.2771711349487305
06-05-1996,6.5625,6.59375,504400,6.65625,6.5625,5.227389812469482
07-05-1996,6.125,6.625,1395600,6.65625,6.21875,4.953573226928711
08-05-1996,6.1875,6.25,620400,6.34375,6.25,4.978465557098389
09-05-1996,6.25,6.25,332000,6.375,6.375,5.078032970428467
10-05-1996,6.25,6.375,818400,6.40625,6.3125,5.028250694274902
13-05-1996,6.21875,6.25,796000,6.3125,6.25,4.978465557098389
14-05-1996,6.15625,6.25,1208800,6.28125,6.15625,4.9037861824035645
15-05-1996,6.09375,6.1875,2372400,6.3125,6.3125,5.028250694274902
16-05-1996,6.25,6.34375,379600,6.34375,6.28125,5.003357410430908
17-05-1996,6.1875,6.25,1017600,6.28125,6.25,4.978465557098389
20-05-1996,6.25,6.25,425600,6.375,6.34375,5.053142070770264
21-05-1996,6.3125,6.3125,2660400,6.46875,6.4375,5.127815246582031
22-05-1996,6.4375,6.4375,552000,6.5,6.5,5.177603244781494
23-05-1996,6.53125,6.5625,1154800,6.75,6.5625,5.227389812469482
24-05-1996,6.4375,6.5,1701200,6.53125,6.5,5.177603244781494
28-05-1996,6.359375,6.53125,554000,6.53125,6.4375,5.127815246582031
29-05-1996,6.3125,6.40625,613600,6.40625,6.375,5.078032970428467
30-05-1996,6.25,6.375,604000,6.375,6.3125,5.028250694274902
31-05-1996,6.25,6.34375,493200,6.375,6.3125,5.028250694274902
03-06-1996,6.28125,6.3125,211200,6.3125,6.3125,5.028250694274902
04-06-1996,6.375,6.40625,654800,6.46875,6.375,5.078032970428467
05-06-1996,6.40625,6.4375,679600,6.46875,6.4375,5.127815246582031
06-06-1996,6.25,6.4375,278800,6.4375,6.28125,5.003357410430908
07-06-1996,6.15625,6.21875,702800,6.34375,6.34375,5.053142070770264
10-06-1996,6.3125,6.34375,241200,6.34375,6.3125,5.028250694274902
11-06-1996,6.28125,6.3125,761600,6.375,6.3125,5.028250694274902
12-06-1996,6.25,6.3125,1385200,6.3125,6.28125,5.003357410430908
13-06-1996,6.09375,6.28125,985600,6.28125,6.1875,4.928680419921875
14-06-1996,6.15625,6.1875,1093200,6.21875,6.15625,4.9037861824035645
17-06-1996,6.0625,6.09375,586400,6.125,6.0625,4.829107761383057
18-06-1996,5.96875,6.0,1450000,6.125,5.96875,4.754434108734131
19-06-1996,6.03125,6.03125,1416800,6.15625,6.0625,4.829107761383057
20-06-1996,6.0625,6.09375,1258400,6.125,6.09375,4.854002475738525
21-06-1996,6.0,6.09375,650800,6.09375,6.0,4.779326438903809
24-06-1996,5.96875,6.03125,948000,6.0625,6.0,4.779326438903809
25-06-1996,5.96875,6.03125,2754000,6.25,6.15625,4.9037861824035645
26-06-1996,6.21875,6.21875,5256400,6.625,6.625,5.2771711349487305
27-06-1996,6.53125,6.59375,4884000,6.75,6.75,5.376742362976074
28-06-1996,6.78125,6.8125,5409200,6.96875,6.96875,5.550986289978027
01-07-1996,6.90625,6.96875,3778800,7.28125,7.28125,5.7999138832092285
02-07-1996,7.125,7.15625,2342000,7.25,7.21875,5.750128269195557
03-07-1996,7.125,7.125,1392000,7.21875,7.21875,5.750128269195557
05-07-1996,7.125,7.21875,753600,7.3125,7.28125,5.7999138832092285
08-07-1996,7.1875,7.25,924800,7.3125,7.25,5.775020122528076
09-07-1996,7.25,7.25,2440800,7.5625,7.5,5.974157810211182
10-07-1996,7.46875,7.5,3225600,7.65625,7.5625,6.023941516876221
11-07-1996,7.125,7.46875,3954400,7.59375,7.1875,5.7309184074401855
12-07-1996,7.125,7.15625,1191200,7.21875,7.15625,5.70599889755249
15-07-1996,7.09375,7.125,1718400,7.34375,7.125,5.681084156036377
16-07-1996,6.5625,7.0625,1854400,7.09375,6.65625,5.307327747344971
17-07-1996,6.6875,6.6875,2270000,6.96875,6.6875,5.332248687744141
18-07-1996,6.65625,6.75,990400,6.8125,6.71875,5.357165336608887
19-07-1996,6.65625,6.6875,1322800,6.71875,6.6875,5.332248687744141
22-07-1996,6.5625,6.6875,1101600,6.6875,6.59375,5.25749397277832
23-07-1996,6.53125,6.625,2303200,6.8125,6.8125,5.431913375854492
24-07-1996,6.625,6.75,327600,6.75,6.625,5.282410621643066
25-07-1996,6.375,6.625,762800,6.78125,6.375,5.08307409286499
26-07-1996,6.40625,6.40625,462800,6.5625,6.53125,5.207659721374512
29-07-1996,6.4375,6.5,676800,6.53125,6.5,5.182744026184082
30-07-1996,6.25,6.46875,1988800,6.53125,6.3125,5.033240795135498
31-07-1996,6.125,6.3125,1733600,6.3125,6.25,4.983407020568848
01-08-1996,6.25,6.25,1422800,6.375,6.3125,5.033240795135498
02-08-1996,6.3125,6.3125,1042800,6.46875,6.46875,5.157828330993652
05-08-1996,6.34375,6.46875,503200,6.59375,6.59375,5.25749397277832
06-08-1996,6.5,6.59375,495200,6.65625,6.65625,5.307327747344971
07-08-1996,6.75,6.75,1542800,6.84375,6.84375,5.456828594207764
08-08-1996,6.75,6.84375,767600,6.875,6.84375,5.456828594207764
09-08-1996,6.71875,6.875,634400,6.875,6.71875,5.357165336608887
12-08-1996,6.625,6.75,167600,6.75,6.625,5.282410621643066
13-08-1996,6.625,6.65625,389600,6.6875,6.625,5.282410621643066
14-08-1996,6.625,6.625,333200,6.65625,6.65625,5.307327747344971
15-08-1996,6.625,6.625,331600,6.75,6.75,5.382077693939209
16-08-1996,6.625,6.6875,329600,6.71875,6.71875,5.357165336608887
19-08-1996,6.625,6.65625,339200,6.78125,6.78125,5.406996726989746
20-08-1996,6.6875,6.8125,928800,6.8125,6.75,5.382077693939209
21-08-1996,6.59375,6.71875,837600,6.71875,6.65625,5.307327747344971
22-08-1996,6.59375,6.65625,433200,6.6875,6.65625,5.307327747344971
23-08-1996,6.5625,6.59375,228800,6.65625,6.625,5.282410621643066
26-08-1996,6.5625,6.625,488000,6.65625,6.65625,5.307327747344971
27-08-1996,6.5,6.625,669600,6.625,6.5,5.182744026184082
28-08-1996,6.46875,6.5,392800,6.5,6.46875,5.157828330993652
29-08-1996,6.4375,6.46875,499200,6.5,6.46875,5.157828330993652
30-08-1996,6.375,6.4375,160800,6.46875,6.46875,5.157828330993652
03-09-1996,6.5,6.5,1298800,6.59375,6.5625,5.232578277587891
04-09-1996,6.40625,6.53125,356400,6.53125,6.46875,5.157828330993652
05-09-1996,6.375,6.4375,382800,6.5,6.4375,5.132907390594482
06-09-1996,6.3125,6.4375,2431600,6.59375,6.46875,5.157828330993652
09-09-1996,6.40625,6.46875,501200,6.53125,6.5,5.182744026184082
10-09-1996,6.46875,6.5,488400,6.53125,6.46875,5.157828330993652
11-09-1996,6.46875,6.46875,1305600,6.65625,6.5625,5.232578277587891
12-09-1996,6.28125,6.53125,1240800,6.53125,6.3125,5.033240795135498
13-09-1996,6.125,6.3125,1250400,6.3125,6.125,4.883738040924072
16-09-1996,6.03125,6.125,1839600,6.125,6.0625,4.833901405334473
17-09-1996,5.71875,5.875,3505600,5.9375,5.875,4.684401512145996
18-09-1996,5.875,5.90625,2286800,6.09375,6.0,4.784071445465088
19-09-1996,5.96875,5.96875,2160800,6.09375,6.03125,4.808986663818359
20-09-1996,6.03125,6.03125,601200,6.09375,6.03125,4.808986663818359
23-09-1996,6.0,6.0625,1021600,6.0625,6.03125,4.808986663818359
24-09-1996,5.84375,6.0,1552000,6.0625,5.90625,4.709321975708008
25-09-1996,5.78125,5.90625,1691200,6.0,6.0,4.784071445465088
26-09-1996,6.03125,6.03125,856400,6.15625,6.125,4.883738040924072
27-09-1996,6.0,6.0625,1036000,6.09375,6.03125,4.808986663818359
30-09-1996,6.0,6.0,1134400,6.21875,6.21875,4.958489418029785
01-10-1996,6.25,6.25,956400,6.3125,6.3125,5.033240795135498
02-10-1996,6.28125,6.3125,774800,6.40625,6.375,5.08307409286499
03-10-1996,6.28125,6.375,691600,6.375,6.28125,5.00832462310791
04-10-1996,6.28125,6.34375,592000,6.40625,6.28125,5.00832462310791
07-10-1996,6.25,6.28125,1552000,6.4375,6.40625,5.107991695404053
08-10-1996,6.34375,6.40625,1220000,6.46875,6.375,5.08307409286499
09-10-1996,6.25,6.375,772800,6.375,6.3125,5.033240795135498
10-10-1996,5.9375,6.21875,2254800,6.21875,6.0,4.789760112762451
11-10-1996,5.9375,6.0,1258800,6.0625,5.9375,4.7398681640625
14-10-1996,5.8125,5.9375,2306000,5.96875,5.84375,4.665025234222412
15-10-1996,5.84375,5.875,1424800,6.0,6.0,4.789760112762451
16-10-1996,5.96875,6.0,1880000,6.09375,6.09375,4.864603042602539
17-10-1996,6.125,6.15625,1636400,6.25,6.25,4.989336013793945
18-10-1996,6.21875,6.25,1060800,6.40625,6.375,5.089121341705322
21-10-1996,6.25,6.34375,722000,6.375,6.25,4.989336013793945
22-10-1996,6.15625,6.25,1494400,6.3125,6.1875,4.939441680908203
23-10-1996,5.96875,6.15625,2842800,6.15625,6.0,4.789760112762451
24-10-1996,6.0,6.03125,1593200,6.09375,6.0625,4.839653968811035
25-10-1996,6.09375,6.09375,1020000,6.21875,6.21875,4.964385986328125
28-10-1996,6.09375,6.15625,995600,6.1875,6.09375,4.864603042602539
29-10-1996,6.03125,6.09375,1533600,6.15625,6.15625,4.9144978523254395
30-10-1996,6.15625,6.15625,3300400,6.375,6.375,5.089121341705322
31-10-1996,6.375,6.375,1713200,6.53125,6.4375,5.13901424407959
01-11-1996,6.25,6.4375,1226800,6.46875,6.28125,5.014281749725342
04-11-1996,6.1875,6.25,1135200,6.28125,6.1875,4.939441680908203
05-11-1996,6.1875,6.25,730800,6.25,6.21875,4.964385986328125
06-11-1996,6.125,6.21875,395600,6.21875,6.125,4.889547824859619
07-11-1996,6.0,6.0,1647200,6.0625,6.0,4.789760112762451
08-11-1996,6.0,6.0625,1212400,6.15625,6.15625,4.9144978523254395
11-11-1996,6.15625,6.1875,1075600,6.28125,6.25,4.989336013793945
12-11-1996,6.25,6.3125,1186400,6.375,6.25,4.989336013793945
13-11-1996,6.25,6.28125,1387200,6.28125,6.28125,5.014281749725342
14-11-1996,6.28125,6.28125,2227200,6.3125,6.3125,5.039228916168213
15-11-1996,6.21875,6.28125,1321600,6.34375,6.25,4.989336013793945
18-11-1996,6.1875,6.25,682000,6.25,6.25,4.989336013793945
19-11-1996,6.21875,6.25,2281600,6.40625,6.40625,5.114067077636719
20-11-1996,6.5625,6.75,3805200,6.78125,6.78125,5.41342830657959
21-11-1996,6.59375,6.78125,1956000,6.78125,6.625,5.288693904876709
